;content of C:\DATA XRD\IMS_LMFO_324.raw - (Diffrac Plus V4 file)
_FILEVERSION = 3
_SAMPLE = IMS_LMFO_323
_+SAMPLE
_USER = Lab Manager
_GONIOMETER_CODE = 20
_STAGE_CODE = 7
; Goniometer : D8 theta/2theta, stage : Chi drive
_SAMPLE_CHANGER_CODE = 0
_ATTACHMENTS_CODE = 0
_GONIOMETER_RADIUS = 217.5
_FIXED_DIVSLIT = 2
_MONOCHROMATOR = 0
; Incident beam monochromator : None
_SOLLER_SLITS_2 = 2
_BETA_FILTER = N
_ANALYZER_CODE = 0
; Received beam analyzer : None
_DATEMEASURED = 21-Jul-2022 16:59:25
_RUNTIME = 1821.183
_WL_UNIT = A
_WL1 = 1.5406
_WL2 = 1.54439
_WL3 = 1.39222
_WLRATIO = 0.5
_ANODE = Cu
_V4_INF_USER = Lab Manager
_V4_INF_SAMPLEID = IMS_LMFO_323
_V4_INF_CREATOR = BrmlToV4Converter
_V4_INF_CREATOR_VERSION = 7.5.0.0

; Data for range 1
_DRIVE = COUPLED
_STEPTIME = 92.544
_STEPSIZE = 0.01973
_STEPMODE = C
_START = 10
_THETA = 5
_2THETA = 10
_PHI = 37.992188
_DETECTORSLIT = out
_TIMESTARTED = 0
_ROTATION_SPEED = 15
_KV = 40
_MA = 40
_RANGE_WL = 1.5406
_3DPLANE = 0
_V4_PSD2THETA = 9999
_V4_PSDCHANNEL1 = 0
_V4_PSDAPERTURE = 3.788144
_V4_PSDTYPE = 5
_V4_PSDFIXED = 0
_V4_COUNTERS_MASK = 1
_V4_DRIVES_MASK = 0
_V4_ENCODERS_MASK = 0
_COUNTS = 1
; Cnt2_D1	
83.000000	
83.000000	
103.000000	
109.000000	
88.000000	
84.000000	
93.000000	
87.000000	
73.000000	
96.000000	
84.000000	
89.000000	
82.000000	
99.000000	
110.000000	
92.000000	
82.000000	
73.000000	
84.000000	
101.000000	
100.000000	
80.000000	
77.000000	
82.000000	
94.000000	
89.000000	
84.000000	
95.000000	
94.000000	
93.000000	
97.000000	
78.000000	
83.000000	
89.000000	
87.000000	
88.000000	
74.000000	
75.000000	
87.000000	
83.000000	
81.000000	
83.000000	
91.000000	
92.000000	
95.000000	
73.000000	
75.000000	
70.000000	
87.000000	
86.000000	
96.000000	
90.000000	
81.000000	
88.000000	
84.000000	
75.000000	
83.000000	
91.000000	
84.000000	
67.000000	
69.000000	
75.000000	
75.000000	
67.000000	
85.000000	
86.000000	
73.000000	
86.000000	
66.000000	
77.000000	
77.000000	
69.000000	
79.000000	
82.000000	
75.000000	
68.000000	
88.000000	
81.000000	
70.000000	
80.000000	
73.000000	
68.000000	
73.000000	
76.000000	
85.000000	
66.000000	
63.000000	
84.000000	
72.000000	
72.000000	
77.000000	
67.000000	
73.000000	
74.000000	
66.000000	
78.000000	
68.000000	
68.000000	
79.000000	
69.000000	
72.000000	
68.000000	
61.000000	
71.000000	
67.000000	
65.000000	
78.000000	
76.000000	
65.000000	
64.000000	
62.000000	
77.000000	
57.000000	
63.000000	
55.000000	
52.000000	
57.000000	
73.000000	
82.000000	
60.000000	
66.000000	
75.000000	
63.000000	
70.000000	
64.000000	
78.000000	
56.000000	
64.000000	
64.000000	
57.000000	
74.000000	
65.000000	
59.000000	
53.000000	
70.000000	
65.000000	
61.000000	
64.000000	
45.000000	
60.000000	
63.000000	
56.000000	
60.000000	
58.000000	
68.000000	
69.000000	
67.000000	
64.000000	
60.000000	
63.000000	
68.000000	
49.000000	
55.000000	
76.000000	
83.000000	
60.000000	
66.000000	
70.000000	
62.000000	
71.000000	
70.000000	
49.000000	
55.000000	
65.000000	
66.000000	
67.000000	
41.000000	
62.000000	
50.000000	
50.000000	
62.000000	
44.000000	
48.000000	
43.000000	
65.000000	
53.000000	
56.000000	
59.000000	
60.000000	
49.000000	
56.000000	
59.000000	
46.000000	
58.000000	
65.000000	
58.000000	
59.000000	
52.000000	
57.000000	
45.000000	
74.000000	
63.000000	
60.000000	
50.000000	
54.000000	
52.000000	
62.000000	
58.000000	
59.000000	
62.000000	
54.000000	
67.000000	
59.000000	
66.000000	
65.000000	
65.000000	
69.000000	
64.000000	
57.000000	
47.000000	
58.000000	
46.000000	
65.000000	
45.000000	
50.000000	
53.000000	
50.000000	
41.000000	
44.000000	
47.000000	
41.000000	
61.000000	
60.000000	
61.000000	
56.000000	
54.000000	
47.000000	
50.000000	
59.000000	
61.000000	
45.000000	
55.000000	
48.000000	
52.000000	
52.000000	
53.000000	
45.000000	
49.000000	
67.000000	
56.000000	
42.000000	
41.000000	
52.000000	
57.000000	
51.000000	
44.000000	
31.000000	
53.000000	
51.000000	
41.000000	
50.000000	
52.000000	
42.000000	
55.000000	
51.000000	
50.000000	
63.000000	
52.000000	
57.000000	
55.000000	
44.000000	
49.000000	
49.000000	
38.000000	
35.000000	
44.000000	
44.000000	
60.000000	
40.000000	
46.000000	
45.000000	
46.000000	
48.000000	
47.000000	
34.000000	
46.000000	
55.000000	
48.000000	
42.000000	
45.000000	
37.000000	
47.000000	
39.000000	
61.000000	
50.000000	
42.000000	
43.000000	
48.000000	
44.000000	
44.000000	
38.000000	
41.000000	
42.000000	
40.000000	
52.000000	
44.000000	
49.000000	
57.000000	
45.000000	
42.000000	
31.000000	
43.000000	
41.000000	
40.000000	
40.000000	
39.000000	
42.000000	
42.000000	
38.000000	
50.000000	
41.000000	
36.000000	
45.000000	
28.000000	
52.000000	
45.000000	
42.000000	
37.000000	
41.000000	
57.000000	
37.000000	
52.000000	
56.000000	
40.000000	
39.000000	
33.000000	
39.000000	
37.000000	
34.000000	
33.000000	
46.000000	
39.000000	
39.000000	
40.000000	
36.000000	
38.000000	
45.000000	
40.000000	
46.000000	
42.000000	
38.000000	
46.000000	
48.000000	
33.000000	
34.000000	
40.000000	
45.000000	
26.000000	
47.000000	
39.000000	
32.000000	
33.000000	
35.000000	
39.000000	
39.000000	
46.000000	
35.000000	
45.000000	
40.000000	
33.000000	
35.000000	
33.000000	
39.000000	
38.000000	
30.000000	
35.000000	
44.000000	
38.000000	
37.000000	
47.000000	
46.000000	
36.000000	
31.000000	
40.000000	
41.000000	
43.000000	
39.000000	
31.000000	
37.000000	
45.000000	
35.000000	
29.000000	
29.000000	
34.000000	
34.000000	
37.000000	
43.000000	
43.000000	
44.000000	
22.000000	
47.000000	
38.000000	
31.000000	
36.000000	
33.000000	
37.000000	
42.000000	
27.000000	
36.000000	
39.000000	
33.000000	
38.000000	
47.000000	
49.000000	
43.000000	
36.000000	
44.000000	
60.000000	
65.000000	
73.000000	
85.000000	
70.000000	
100.000000	
98.000000	
126.000000	
110.000000	
122.000000	
121.000000	
162.000000	
163.000000	
138.000000	
190.000000	
146.000000	
169.000000	
175.000000	
203.000000	
186.000000	
206.000000	
222.000000	
202.000000	
230.000000	
220.000000	
232.000000	
220.000000	
251.000000	
317.000000	
403.000000	
601.000000	
835.000000	
1364.000000	
2081.000000	
3087.000000	
3717.000000	
3223.000000	
2097.000000	
1097.000000	
627.000000	
348.000000	
216.000000	
172.000000	
124.000000	
101.000000	
77.000000	
60.000000	
58.000000	
64.000000	
54.000000	
48.000000	
39.000000	
53.000000	
55.000000	
33.000000	
29.000000	
40.000000	
52.000000	
48.000000	
47.000000	
43.000000	
33.000000	
39.000000	
31.000000	
35.000000	
32.000000	
44.000000	
35.000000	
35.000000	
38.000000	
32.000000	
31.000000	
41.000000	
39.000000	
35.000000	
33.000000	
33.000000	
31.000000	
29.000000	
29.000000	
39.000000	
48.000000	
29.000000	
26.000000	
27.000000	
35.000000	
26.000000	
38.000000	
32.000000	
29.000000	
32.000000	
32.000000	
28.000000	
27.000000	
28.000000	
30.000000	
26.000000	
34.000000	
19.000000	
36.000000	
27.000000	
35.000000	
44.000000	
34.000000	
36.000000	
31.000000	
33.000000	
22.000000	
38.000000	
26.000000	
25.000000	
30.000000	
37.000000	
30.000000	
36.000000	
26.000000	
31.000000	
37.000000	
38.000000	
43.000000	
28.000000	
25.000000	
29.000000	
27.000000	
36.000000	
33.000000	
24.000000	
30.000000	
37.000000	
32.000000	
21.000000	
20.000000	
28.000000	
20.000000	
32.000000	
23.000000	
28.000000	
23.000000	
34.000000	
27.000000	
29.000000	
28.000000	
32.000000	
26.000000	
29.000000	
34.000000	
28.000000	
20.000000	
23.000000	
35.000000	
32.000000	
29.000000	
34.000000	
41.000000	
23.000000	
32.000000	
27.000000	
22.000000	
35.000000	
29.000000	
32.000000	
36.000000	
26.000000	
34.000000	
35.000000	
30.000000	
31.000000	
21.000000	
35.000000	
19.000000	
24.000000	
23.000000	
32.000000	
18.000000	
27.000000	
25.000000	
24.000000	
30.000000	
27.000000	
28.000000	
20.000000	
25.000000	
30.000000	
27.000000	
24.000000	
25.000000	
23.000000	
26.000000	
36.000000	
19.000000	
30.000000	
29.000000	
20.000000	
21.000000	
29.000000	
17.000000	
22.000000	
23.000000	
30.000000	
18.000000	
27.000000	
28.000000	
27.000000	
32.000000	
25.000000	
36.000000	
35.000000	
26.000000	
32.000000	
20.000000	
25.000000	
38.000000	
25.000000	
30.000000	
15.000000	
24.000000	
30.000000	
27.000000	
29.000000	
20.000000	
20.000000	
19.000000	
16.000000	
24.000000	
25.000000	
28.000000	
23.000000	
26.000000	
18.000000	
19.000000	
25.000000	
28.000000	
24.000000	
22.000000	
21.000000	
30.000000	
20.000000	
24.000000	
22.000000	
24.000000	
35.000000	
25.000000	
26.000000	
28.000000	
17.000000	
22.000000	
31.000000	
21.000000	
28.000000	
17.000000	
25.000000	
23.000000	
24.000000	
18.000000	
29.000000	
31.000000	
20.000000	
24.000000	
29.000000	
31.000000	
19.000000	
21.000000	
25.000000	
26.000000	
30.000000	
19.000000	
14.000000	
27.000000	
22.000000	
19.000000	
22.000000	
23.000000	
18.000000	
19.000000	
13.000000	
23.000000	
16.000000	
22.000000	
23.000000	
18.000000	
37.000000	
22.000000	
13.000000	
32.000000	
23.000000	
21.000000	
23.000000	
16.000000	
20.000000	
21.000000	
20.000000	
20.000000	
18.000000	
29.000000	
23.000000	
20.000000	
27.000000	
22.000000	
21.000000	
22.000000	
26.000000	
26.000000	
22.000000	
16.000000	
20.000000	
13.000000	
21.000000	
29.000000	
10.000000	
26.000000	
26.000000	
18.000000	
20.000000	
18.000000	
21.000000	
19.000000	
21.000000	
24.000000	
24.000000	
23.000000	
22.000000	
20.000000	
21.000000	
23.000000	
19.000000	
26.000000	
13.000000	
13.000000	
20.000000	
28.000000	
24.000000	
21.000000	
21.000000	
23.000000	
18.000000	
12.000000	
24.000000	
20.000000	
18.000000	
20.000000	
17.000000	
21.000000	
28.000000	
20.000000	
26.000000	
15.000000	
29.000000	
29.000000	
22.000000	
18.000000	
17.000000	
26.000000	
18.000000	
19.000000	
26.000000	
14.000000	
15.000000	
20.000000	
25.000000	
29.000000	
19.000000	
28.000000	
24.000000	
27.000000	
23.000000	
13.000000	
17.000000	
27.000000	
20.000000	
23.000000	
23.000000	
20.000000	
16.000000	
18.000000	
18.000000	
20.000000	
9.000000	
14.000000	
20.000000	
16.000000	
19.000000	
20.000000	
13.000000	
14.000000	
16.000000	
24.000000	
20.000000	
17.000000	
24.000000	
20.000000	
16.000000	
26.000000	
19.000000	
19.000000	
19.000000	
13.000000	
11.000000	
16.000000	
18.000000	
17.000000	
29.000000	
22.000000	
28.000000	
21.000000	
16.000000	
20.000000	
33.000000	
15.000000	
15.000000	
26.000000	
25.000000	
22.000000	
18.000000	
20.000000	
15.000000	
22.000000	
17.000000	
19.000000	
21.000000	
22.000000	
15.000000	
23.000000	
19.000000	
15.000000	
22.000000	
10.000000	
20.000000	
24.000000	
18.000000	
18.000000	
23.000000	
16.000000	
17.000000	
21.000000	
23.000000	
25.000000	
22.000000	
17.000000	
18.000000	
31.000000	
43.000000	
34.000000	
31.000000	
36.000000	
32.000000	
21.000000	
21.000000	
19.000000	
26.000000	
22.000000	
23.000000	
11.000000	
15.000000	
24.000000	
24.000000	
12.000000	
11.000000	
23.000000	
22.000000	
20.000000	
17.000000	
21.000000	
16.000000	
12.000000	
23.000000	
24.000000	
21.000000	
21.000000	
25.000000	
19.000000	
14.000000	
23.000000	
21.000000	
16.000000	
18.000000	
11.000000	
25.000000	
19.000000	
19.000000	
17.000000	
17.000000	
26.000000	
18.000000	
25.000000	
15.000000	
20.000000	
13.000000	
19.000000	
22.000000	
17.000000	
10.000000	
16.000000	
19.000000	
19.000000	
23.000000	
16.000000	
15.000000	
15.000000	
18.000000	
21.000000	
24.000000	
12.000000	
13.000000	
14.000000	
17.000000	
21.000000	
24.000000	
19.000000	
22.000000	
14.000000	
22.000000	
13.000000	
24.000000	
15.000000	
25.000000	
16.000000	
17.000000	
24.000000	
20.000000	
23.000000	
17.000000	
16.000000	
19.000000	
19.000000	
17.000000	
19.000000	
17.000000	
15.000000	
17.000000	
21.000000	
17.000000	
13.000000	
13.000000	
18.000000	
23.000000	
19.000000	
21.000000	
21.000000	
21.000000	
16.000000	
24.000000	
16.000000	
15.000000	
15.000000	
18.000000	
14.000000	
18.000000	
16.000000	
12.000000	
8.000000	
23.000000	
20.000000	
20.000000	
17.000000	
25.000000	
14.000000	
14.000000	
17.000000	
20.000000	
14.000000	
17.000000	
18.000000	
20.000000	
19.000000	
17.000000	
20.000000	
11.000000	
23.000000	
16.000000	
16.000000	
15.000000	
13.000000	
16.000000	
16.000000	
19.000000	
20.000000	
16.000000	
16.000000	
22.000000	
19.000000	
16.000000	
22.000000	
15.000000	
17.000000	
20.000000	
13.000000	
18.000000	
18.000000	
26.000000	
20.000000	
17.000000	
16.000000	
19.000000	
12.000000	
20.000000	
17.000000	
12.000000	
11.000000	
15.000000	
16.000000	
16.000000	
14.000000	
17.000000	
18.000000	
18.000000	
20.000000	
23.000000	
19.000000	
25.000000	
24.000000	
29.000000	
22.000000	
19.000000	
18.000000	
20.000000	
17.000000	
29.000000	
24.000000	
26.000000	
27.000000	
23.000000	
24.000000	
27.000000	
24.000000	
23.000000	
27.000000	
27.000000	
40.000000	
27.000000	
21.000000	
34.000000	
21.000000	
22.000000	
33.000000	
28.000000	
34.000000	
44.000000	
62.000000	
78.000000	
107.000000	
131.000000	
129.000000	
94.000000	
58.000000	
47.000000	
32.000000	
34.000000	
26.000000	
16.000000	
21.000000	
16.000000	
16.000000	
21.000000	
13.000000	
13.000000	
12.000000	
13.000000	
17.000000	
13.000000	
20.000000	
17.000000	
18.000000	
12.000000	
19.000000	
9.000000	
9.000000	
14.000000	
12.000000	
14.000000	
24.000000	
17.000000	
16.000000	
19.000000	
17.000000	
12.000000	
14.000000	
16.000000	
17.000000	
17.000000	
12.000000	
16.000000	
14.000000	
16.000000	
13.000000	
14.000000	
16.000000	
13.000000	
11.000000	
10.000000	
11.000000	
12.000000	
17.000000	
9.000000	
20.000000	
11.000000	
21.000000	
20.000000	
17.000000	
13.000000	
18.000000	
17.000000	
13.000000	
15.000000	
18.000000	
19.000000	
18.000000	
17.000000	
20.000000	
10.000000	
13.000000	
15.000000	
11.000000	
11.000000	
14.000000	
18.000000	
17.000000	
13.000000	
12.000000	
16.000000	
15.000000	
10.000000	
10.000000	
10.000000	
16.000000	
16.000000	
11.000000	
13.000000	
17.000000	
19.000000	
13.000000	
11.000000	
10.000000	
9.000000	
8.000000	
13.000000	
11.000000	
15.000000	
17.000000	
15.000000	
18.000000	
19.000000	
13.000000	
14.000000	
20.000000	
8.000000	
16.000000	
16.000000	
15.000000	
19.000000	
8.000000	
13.000000	
15.000000	
11.000000	
13.000000	
12.000000	
16.000000	
16.000000	
13.000000	
15.000000	
12.000000	
12.000000	
10.000000	
15.000000	
12.000000	
10.000000	
18.000000	
13.000000	
15.000000	
12.000000	
10.000000	
25.000000	
12.000000	
14.000000	
21.000000	
13.000000	
16.000000	
12.000000	
11.000000	
11.000000	
22.000000	
15.000000	
16.000000	
15.000000	
10.000000	
9.000000	
23.000000	
13.000000	
14.000000	
19.000000	
12.000000	
8.000000	
14.000000	
13.000000	
13.000000	
15.000000	
8.000000	
14.000000	
16.000000	
13.000000	
17.000000	
21.000000	
17.000000	
14.000000	
18.000000	
11.000000	
14.000000	
18.000000	
16.000000	
18.000000	
14.000000	
14.000000	
17.000000	
12.000000	
23.000000	
9.000000	
16.000000	
18.000000	
10.000000	
11.000000	
15.000000	
11.000000	
15.000000	
17.000000	
12.000000	
15.000000	
10.000000	
16.000000	
14.000000	
14.000000	
20.000000	
17.000000	
10.000000	
15.000000	
11.000000	
18.000000	
21.000000	
23.000000	
8.000000	
18.000000	
20.000000	
17.000000	
18.000000	
17.000000	
14.000000	
13.000000	
23.000000	
24.000000	
18.000000	
15.000000	
20.000000	
17.000000	
13.000000	
13.000000	
15.000000	
24.000000	
20.000000	
18.000000	
19.000000	
22.000000	
18.000000	
11.000000	
21.000000	
18.000000	
18.000000	
20.000000	
15.000000	
13.000000	
20.000000	
21.000000	
12.000000	
20.000000	
18.000000	
25.000000	
32.000000	
25.000000	
25.000000	
25.000000	
30.000000	
35.000000	
39.000000	
47.000000	
48.000000	
45.000000	
65.000000	
69.000000	
85.000000	
81.000000	
92.000000	
93.000000	
97.000000	
114.000000	
117.000000	
131.000000	
130.000000	
117.000000	
139.000000	
160.000000	
136.000000	
159.000000	
179.000000	
160.000000	
190.000000	
219.000000	
238.000000	
195.000000	
232.000000	
236.000000	
257.000000	
316.000000	
422.000000	
609.000000	
844.000000	
1267.000000	
1835.000000	
2557.000000	
2669.000000	
2351.000000	
1622.000000	
913.000000	
572.000000	
369.000000	
260.000000	
176.000000	
157.000000	
92.000000	
74.000000	
64.000000	
64.000000	
23.000000	
39.000000	
36.000000	
33.000000	
22.000000	
29.000000	
20.000000	
9.000000	
19.000000	
19.000000	
16.000000	
20.000000	
12.000000	
25.000000	
20.000000	
15.000000	
9.000000	
13.000000	
12.000000	
20.000000	
22.000000	
11.000000	
13.000000	
20.000000	
15.000000	
16.000000	
21.000000	
10.000000	
16.000000	
11.000000	
15.000000	
19.000000	
15.000000	
25.000000	
17.000000	
11.000000	
20.000000	
21.000000	
17.000000	
17.000000	
20.000000	
19.000000	
21.000000	
29.000000	
27.000000	
32.000000	
32.000000	
36.000000	
30.000000	
35.000000	
34.000000	
36.000000	
28.000000	
34.000000	
32.000000	
58.000000	
48.000000	
52.000000	
37.000000	
56.000000	
53.000000	
54.000000	
56.000000	
70.000000	
64.000000	
87.000000	
112.000000	
152.000000	
223.000000	
352.000000	
448.000000	
493.000000	
355.000000	
258.000000	
148.000000	
115.000000	
67.000000	
63.000000	
34.000000	
33.000000	
25.000000	
21.000000	
16.000000	
19.000000	
15.000000	
12.000000	
14.000000	
13.000000	
14.000000	
16.000000	
7.000000	
13.000000	
21.000000	
19.000000	
15.000000	
21.000000	
18.000000	
15.000000	
11.000000	
15.000000	
10.000000	
14.000000	
15.000000	
19.000000	
14.000000	
11.000000	
17.000000	
15.000000	
9.000000	
12.000000	
11.000000	
16.000000	
9.000000	
16.000000	
15.000000	
12.000000	
10.000000	
9.000000	
12.000000	
10.000000	
15.000000	
14.000000	
10.000000	
6.000000	
10.000000	
19.000000	
13.000000	
16.000000	
12.000000	
14.000000	
8.000000	
14.000000	
10.000000	
17.000000	
8.000000	
15.000000	
10.000000	
11.000000	
11.000000	
15.000000	
11.000000	
11.000000	
12.000000	
12.000000	
11.000000	
8.000000	
10.000000	
6.000000	
16.000000	
15.000000	
17.000000	
16.000000	
13.000000	
10.000000	
17.000000	
15.000000	
14.000000	
14.000000	
10.000000	
12.000000	
16.000000	
13.000000	
10.000000	
16.000000	
17.000000	
14.000000	
12.000000	
10.000000	
16.000000	
15.000000	
11.000000	
13.000000	
12.000000	
14.000000	
13.000000	
15.000000	
17.000000	
7.000000	
11.000000	
13.000000	
21.000000	
6.000000	
12.000000	
17.000000	
14.000000	
8.000000	
8.000000	
11.000000	
9.000000	
10.000000	
12.000000	
6.000000	
14.000000	
13.000000	
15.000000	
13.000000	
9.000000	
7.000000	
11.000000	
12.000000	
7.000000	
13.000000	
9.000000	
8.000000	
7.000000	
16.000000	
12.000000	
10.000000	
13.000000	
15.000000	
7.000000	
17.000000	
8.000000	
9.000000	
13.000000	
9.000000	
6.000000	
12.000000	
10.000000	
11.000000	
14.000000	
7.000000	
5.000000	
7.000000	
5.000000	
9.000000	
7.000000	
12.000000	
8.000000	
17.000000	
17.000000	
7.000000	
11.000000	
8.000000	
16.000000	
5.000000	
14.000000	
13.000000	
12.000000	
8.000000	
16.000000	
10.000000	
9.000000	
13.000000	
11.000000	
16.000000	
12.000000	
9.000000	
8.000000	
6.000000	
16.000000	
10.000000	
10.000000	
15.000000	
15.000000	
12.000000	
10.000000	
14.000000	
15.000000	
7.000000	
13.000000	
6.000000	
7.000000	
7.000000	
6.000000	
14.000000	
10.000000	
16.000000	
12.000000	
11.000000	
8.000000	
10.000000	
15.000000	
19.000000	
9.000000	
9.000000	
11.000000	
8.000000	
10.000000	
8.000000	
13.000000	
14.000000	
7.000000	
11.000000	
15.000000	
9.000000	
14.000000	
13.000000	
9.000000	
9.000000	
8.000000	
11.000000	
13.000000	
16.000000	
9.000000	
8.000000	
12.000000	
10.000000	
11.000000	
8.000000	
11.000000	
19.000000	
15.000000	
13.000000	
10.000000	
15.000000	
16.000000	
15.000000	
14.000000	
10.000000	
20.000000	
9.000000	
12.000000	
10.000000	
18.000000	
19.000000	
14.000000	
11.000000	
16.000000	
11.000000	
8.000000	
17.000000	
13.000000	
17.000000	
6.000000	
16.000000	
12.000000	
15.000000	
12.000000	
15.000000	
15.000000	
8.000000	
15.000000	
9.000000	
11.000000	
11.000000	
11.000000	
18.000000	
13.000000	
23.000000	
21.000000	
23.000000	
18.000000	
16.000000	
31.000000	
29.000000	
31.000000	
49.000000	
53.000000	
68.000000	
73.000000	
79.000000	
82.000000	
104.000000	
99.000000	
113.000000	
116.000000	
108.000000	
136.000000	
138.000000	
132.000000	
137.000000	
149.000000	
155.000000	
173.000000	
173.000000	
188.000000	
197.000000	
219.000000	
214.000000	
254.000000	
271.000000	
387.000000	
467.000000	
664.000000	
946.000000	
1352.000000	
1844.000000	
2237.000000	
2151.000000	
1877.000000	
1290.000000	
862.000000	
531.000000	
364.000000	
248.000000	
249.000000	
147.000000	
129.000000	
123.000000	
82.000000	
65.000000	
57.000000	
47.000000	
37.000000	
40.000000	
31.000000	
37.000000	
25.000000	
25.000000	
30.000000	
24.000000	
23.000000	
21.000000	
18.000000	
17.000000	
16.000000	
21.000000	
11.000000	
13.000000	
15.000000	
21.000000	
17.000000	
18.000000	
10.000000	
14.000000	
17.000000	
12.000000	
17.000000	
13.000000	
23.000000	
10.000000	
14.000000	
8.000000	
12.000000	
7.000000	
18.000000	
10.000000	
16.000000	
10.000000	
17.000000	
10.000000	
13.000000	
13.000000	
20.000000	
14.000000	
7.000000	
9.000000	
6.000000	
12.000000	
14.000000	
9.000000	
10.000000	
16.000000	
6.000000	
13.000000	
12.000000	
9.000000	
10.000000	
9.000000	
11.000000	
15.000000	
17.000000	
14.000000	
7.000000	
18.000000	
12.000000	
13.000000	
13.000000	
14.000000	
7.000000	
14.000000	
16.000000	
14.000000	
13.000000	
7.000000	
11.000000	
11.000000	
18.000000	
12.000000	
10.000000	
14.000000	
13.000000	
9.000000	
6.000000	
11.000000	
10.000000	
13.000000	
10.000000	
10.000000	
13.000000	
18.000000	
7.000000	
9.000000	
15.000000	
12.000000	
16.000000	
10.000000	
5.000000	
8.000000	
8.000000	
10.000000	
11.000000	
7.000000	
10.000000	
8.000000	
13.000000	
9.000000	
8.000000	
12.000000	
8.000000	
13.000000	
9.000000	
14.000000	
8.000000	
6.000000	
18.000000	
13.000000	
10.000000	
7.000000	
16.000000	
5.000000	
5.000000	
6.000000	
11.000000	
4.000000	
14.000000	
9.000000	
11.000000	
9.000000	
10.000000	
14.000000	
11.000000	
13.000000	
6.000000	
11.000000	
11.000000	
15.000000	
8.000000	
11.000000	
8.000000	
7.000000	
12.000000	
14.000000	
5.000000	
17.000000	
13.000000	
10.000000	
13.000000	
8.000000	
10.000000	
13.000000	
13.000000	
8.000000	
13.000000	
7.000000	
9.000000	
16.000000	
6.000000	
10.000000	
11.000000	
9.000000	
14.000000	
9.000000	
14.000000	
16.000000	
17.000000	
11.000000	
14.000000	
19.000000	
18.000000	
23.000000	
20.000000	
10.000000	
25.000000	
25.000000	
23.000000	
34.000000	
35.000000	
26.000000	
22.000000	
27.000000	
36.000000	
32.000000	
32.000000	
55.000000	
35.000000	
40.000000	
51.000000	
46.000000	
47.000000	
61.000000	
59.000000	
62.000000	
108.000000	
160.000000	
219.000000	
272.000000	
351.000000	
339.000000	
266.000000	
210.000000	
148.000000	
93.000000	
65.000000	
56.000000	
46.000000	
26.000000	
29.000000	
18.000000	
32.000000	
20.000000	
18.000000	
16.000000	
18.000000	
11.000000	
15.000000	
16.000000	
12.000000	
10.000000	
9.000000	
12.000000	
12.000000	
17.000000	
14.000000	
12.000000	
15.000000	
8.000000	
13.000000	
11.000000	
15.000000	
13.000000	
7.000000	
7.000000	
10.000000	
11.000000	
11.000000	
14.000000	
12.000000	
10.000000	
10.000000	
7.000000	
15.000000	
12.000000	
13.000000	
6.000000	
12.000000	
15.000000	
9.000000	
13.000000	
7.000000	
14.000000	
7.000000	
8.000000	
7.000000	
2.000000	
10.000000	
9.000000	
9.000000	
15.000000	
17.000000	
12.000000	
10.000000	
9.000000	
11.000000	
13.000000	
8.000000	
16.000000	
5.000000	
16.000000	
14.000000	
11.000000	
10.000000	
9.000000	
16.000000	
11.000000	
8.000000	
9.000000	
9.000000	
11.000000	
14.000000	
15.000000	
12.000000	
10.000000	
9.000000	
3.000000	
8.000000	
12.000000	
12.000000	
11.000000	
9.000000	
12.000000	
17.000000	
10.000000	
10.000000	
19.000000	
16.000000	
14.000000	
12.000000	
15.000000	
14.000000	
7.000000	
10.000000	
7.000000	
7.000000	
9.000000	
9.000000	
14.000000	
7.000000	
12.000000	
12.000000	
11.000000	
18.000000	
13.000000	
12.000000	
13.000000	
12.000000	
8.000000	
12.000000	
17.000000	
14.000000	
12.000000	
11.000000	
8.000000	
12.000000	
6.000000	
8.000000	
15.000000	
6.000000	
16.000000	
11.000000	
9.000000	
5.000000	
10.000000	
9.000000	
11.000000	
12.000000	
9.000000	
12.000000	
11.000000	
14.000000	
9.000000	
15.000000	
12.000000	
11.000000	
10.000000	
11.000000	
8.000000	
16.000000	
11.000000	
6.000000	
11.000000	
16.000000	
10.000000	
6.000000	
10.000000	
13.000000	
7.000000	
7.000000	
6.000000	
11.000000	
12.000000	
9.000000	
12.000000	
10.000000	
6.000000	
12.000000	
7.000000	
8.000000	
10.000000	
11.000000	
5.000000	
8.000000	
11.000000	
9.000000	
11.000000	
11.000000	
11.000000	
10.000000	
11.000000	
12.000000	
18.000000	
10.000000	
13.000000	
9.000000	
13.000000	
10.000000	
11.000000	
13.000000	
13.000000	
13.000000	
9.000000	
11.000000	
6.000000	
7.000000	
10.000000	
15.000000	
9.000000	
7.000000	
14.000000	
12.000000	
9.000000	
15.000000	
13.000000	
11.000000	
7.000000	
12.000000	
16.000000	
11.000000	
8.000000	
11.000000	
12.000000	
10.000000	
12.000000	
12.000000	
11.000000	
14.000000	
9.000000	
6.000000	
9.000000	
9.000000	
6.000000	
9.000000	
4.000000	
10.000000	
12.000000	
11.000000	
5.000000	
13.000000	
8.000000	
14.000000	
13.000000	
8.000000	
6.000000	
11.000000	
13.000000	
5.000000	
5.000000	
15.000000	
9.000000	
8.000000	
9.000000	
8.000000	
12.000000	
15.000000	
5.000000	
10.000000	
6.000000	
13.000000	
9.000000	
7.000000	
12.000000	
6.000000	
13.000000	
11.000000	
12.000000	
15.000000	
16.000000	
8.000000	
7.000000	
9.000000	
11.000000	
11.000000	
13.000000	
16.000000	
12.000000	
12.000000	
12.000000	
9.000000	
19.000000	
10.000000	
7.000000	
9.000000	
14.000000	
13.000000	
8.000000	
8.000000	
8.000000	
11.000000	
15.000000	
8.000000	
10.000000	
15.000000	
10.000000	
9.000000	
14.000000	
11.000000	
11.000000	
12.000000	
16.000000	
14.000000	
19.000000	
11.000000	
10.000000	
14.000000	
22.000000	
8.000000	
13.000000	
16.000000	
10.000000	
12.000000	
9.000000	
11.000000	
13.000000	
15.000000	
10.000000	
15.000000	
13.000000	
11.000000	
18.000000	
12.000000	
12.000000	
11.000000	
21.000000	
11.000000	
20.000000	
13.000000	
23.000000	
27.000000	
24.000000	
30.000000	
43.000000	
26.000000	
28.000000	
23.000000	
22.000000	
17.000000	
14.000000	
10.000000	
7.000000	
17.000000	
19.000000	
11.000000	
9.000000	
16.000000	
6.000000	
8.000000	
5.000000	
8.000000	
8.000000	
8.000000	
9.000000	
11.000000	
13.000000	
8.000000	
12.000000	
12.000000	
9.000000	
11.000000	
11.000000	
9.000000	
15.000000	
8.000000	
4.000000	
10.000000	
11.000000	
11.000000	
11.000000	
7.000000	
14.000000	
10.000000	
15.000000	
16.000000	
12.000000	
8.000000	
13.000000	
10.000000	
12.000000	
9.000000	
9.000000	
10.000000	
15.000000	
14.000000	
5.000000	
15.000000	
10.000000	
8.000000	
16.000000	
17.000000	
7.000000	
11.000000	
14.000000	
8.000000	
8.000000	
17.000000	
11.000000	
5.000000	
16.000000	
16.000000	
11.000000	
6.000000	
4.000000	
13.000000	
12.000000	
11.000000	
19.000000	
14.000000	
11.000000	
15.000000	
17.000000	
8.000000	
5.000000	
13.000000	
5.000000	
9.000000	
10.000000	
15.000000	
8.000000	
12.000000	
14.000000	
6.000000	
9.000000	
11.000000	
8.000000	
12.000000	
12.000000	
13.000000	
9.000000	
13.000000	
15.000000	
9.000000	
10.000000	
8.000000	
6.000000	
12.000000	
9.000000	
7.000000	
15.000000	
10.000000	
9.000000	
15.000000	
10.000000	
14.000000	
14.000000	
13.000000	
17.000000	
6.000000	
17.000000	
6.000000	
10.000000	
7.000000	
14.000000	
21.000000	
13.000000	
12.000000	
14.000000	
11.000000	
9.000000	
20.000000	
9.000000	
21.000000	
12.000000	
8.000000	
20.000000	
15.000000	
17.000000	
11.000000	
16.000000	
12.000000	
13.000000	
16.000000	
18.000000	
12.000000	
19.000000	
22.000000	
17.000000	
14.000000	
13.000000	
22.000000	
17.000000	
19.000000	
28.000000	
27.000000	
27.000000	
34.000000	
43.000000	
31.000000	
51.000000	
55.000000	
48.000000	
52.000000	
62.000000	
54.000000	
84.000000	
65.000000	
80.000000	
80.000000	
79.000000	
94.000000	
109.000000	
113.000000	
110.000000	
135.000000	
136.000000	
125.000000	
155.000000	
211.000000	
271.000000	
369.000000	
495.000000	
623.000000	
781.000000	
833.000000	
824.000000	
648.000000	
477.000000	
362.000000	
222.000000	
169.000000	
161.000000	
95.000000	
75.000000	
61.000000	
55.000000	
57.000000	
41.000000	
40.000000	
31.000000	
31.000000	
26.000000	
33.000000	
17.000000	
19.000000	
15.000000	
15.000000	
18.000000	
19.000000	
8.000000	
12.000000	
8.000000	
11.000000	
12.000000	
6.000000	
12.000000	
12.000000	
13.000000	
14.000000	
8.000000	
7.000000	
17.000000	
14.000000	
10.000000	
14.000000	
18.000000	
18.000000	
10.000000	
10.000000	
9.000000	
14.000000	
7.000000	
16.000000	
9.000000	
14.000000	
12.000000	
11.000000	
6.000000	
6.000000	
16.000000	
12.000000	
5.000000	
12.000000	
8.000000	
10.000000	
6.000000	
11.000000	
14.000000	
12.000000	
16.000000	
10.000000	
10.000000	
6.000000	
13.000000	
5.000000	
14.000000	
9.000000	
11.000000	
10.000000	
11.000000	
9.000000	
9.000000	
8.000000	
10.000000	
14.000000	
8.000000	
10.000000	
7.000000	
10.000000	
14.000000	
13.000000	
10.000000	
10.000000	
8.000000	
12.000000	
8.000000	
12.000000	
12.000000	
10.000000	
12.000000	
11.000000	
9.000000	
13.000000	
10.000000	
7.000000	
7.000000	
11.000000	
9.000000	
10.000000	
11.000000	
12.000000	
17.000000	
8.000000	
11.000000	
13.000000	
11.000000	
7.000000	
13.000000	
14.000000	
5.000000	
15.000000	
11.000000	
9.000000	
15.000000	
11.000000	
13.000000	
12.000000	
12.000000	
14.000000	
7.000000	
6.000000	
6.000000	
5.000000	
14.000000	
8.000000	
13.000000	
11.000000	
8.000000	
13.000000	
11.000000	
8.000000	
12.000000	
10.000000	
10.000000	
6.000000	
11.000000	
14.000000	
15.000000	
5.000000	
11.000000	
9.000000	
5.000000	
10.000000	
13.000000	
8.000000	
6.000000	
12.000000	
12.000000	
7.000000	
7.000000	
8.000000	
10.000000	
13.000000	
9.000000	
9.000000	
13.000000	
17.000000	
8.000000	
11.000000	
12.000000	
11.000000	
7.000000	
14.000000	
6.000000	
8.000000	
18.000000	
9.000000	
11.000000	
11.000000	
8.000000	
6.000000	
7.000000	
13.000000	
6.000000	
10.000000	
8.000000	
2.000000	
10.000000	
12.000000	
10.000000	
13.000000	
14.000000	
11.000000	
11.000000	
6.000000	
12.000000	
17.000000	
9.000000	
16.000000	
11.000000	
18.000000	
15.000000	
13.000000	
11.000000	
9.000000	
16.000000	
13.000000	
16.000000	
15.000000	
10.000000	
8.000000	
13.000000	
13.000000	
14.000000	
7.000000	
8.000000	
9.000000	
15.000000	
19.000000	
18.000000	
18.000000	
17.000000	
10.000000	
14.000000	
16.000000	
9.000000	
11.000000	
8.000000	
15.000000	
15.000000	
14.000000	
8.000000	
17.000000	
20.000000	
15.000000	
20.000000	
17.000000	
17.000000	
10.000000	
18.000000	
15.000000	
20.000000	
22.000000	
15.000000	
23.000000	
18.000000	
22.000000	
19.000000	
18.000000	
15.000000	
23.000000	
17.000000	
24.000000	
20.000000	
17.000000	
16.000000	
22.000000	
18.000000	
31.000000	
19.000000	
31.000000	
32.000000	
40.000000	
51.000000	
48.000000	
54.000000	
48.000000	
68.000000	
83.000000	
90.000000	
95.000000	
100.000000	
108.000000	
100.000000	
111.000000	
130.000000	
113.000000	
131.000000	
150.000000	
140.000000	
175.000000	
202.000000	
196.000000	
242.000000	
274.000000	
280.000000	
402.000000	
566.000000	
699.000000	
881.000000	
1070.000000	
1165.000000	
1173.000000	
1014.000000	
858.000000	
690.000000	
514.000000	
377.000000	
256.000000	
192.000000	
125.000000	
112.000000	
121.000000	
85.000000	
66.000000	
61.000000	
38.000000	
49.000000	
30.000000	
33.000000	
39.000000	
34.000000	
14.000000	
24.000000	
16.000000	
16.000000	
27.000000	
22.000000	
19.000000	
19.000000	
19.000000	
17.000000	
16.000000	
18.000000	
10.000000	
23.000000	
7.000000	
16.000000	
16.000000	
13.000000	
11.000000	
18.000000	
19.000000	
18.000000	
10.000000	
11.000000	
9.000000	
13.000000	
8.000000	
6.000000	
24.000000	
13.000000	
11.000000	
13.000000	
10.000000	
21.000000	
14.000000	
9.000000	
17.000000	
12.000000	
13.000000	
14.000000	
10.000000	
13.000000	
17.000000	
9.000000	
15.000000	
8.000000	
19.000000	
10.000000	
7.000000	
10.000000	
8.000000	
12.000000	
7.000000	
12.000000	
12.000000	
22.000000	
12.000000	
12.000000	
13.000000	
8.000000	
12.000000	
11.000000	
8.000000	
7.000000	
11.000000	
5.000000	
8.000000	
13.000000	
16.000000	
11.000000	
13.000000	
8.000000	
20.000000	
14.000000	
15.000000	
7.000000	
4.000000	
10.000000	
10.000000	
10.000000	
8.000000	
9.000000	
8.000000	
9.000000	
16.000000	
17.000000	
13.000000	
13.000000	
11.000000	
9.000000	
8.000000	
10.000000	
12.000000	
13.000000	
16.000000	
9.000000	
12.000000	
8.000000	
11.000000	
15.000000	
10.000000	
16.000000	
10.000000	
13.000000	
13.000000	
14.000000	
13.000000	
15.000000	
16.000000	
7.000000	
17.000000	
12.000000	
8.000000	
25.000000	
13.000000	
19.000000	
26.000000	
21.000000	
17.000000	
23.000000	
25.000000	
33.000000	
28.000000	
34.000000	
44.000000	
47.000000	
32.000000	
37.000000	
48.000000	
47.000000	
41.000000	
43.000000	
44.000000	
65.000000	
48.000000	
62.000000	
74.000000	
87.000000	
118.000000	
147.000000	
139.000000	
228.000000	
274.000000	
295.000000	
362.000000	
384.000000	
362.000000	
314.000000	
254.000000	
187.000000	
150.000000	
121.000000	
85.000000	
75.000000	
73.000000	
53.000000	
38.000000	
25.000000	
42.000000	
26.000000	
21.000000	
24.000000	
14.000000	
16.000000	
17.000000	
13.000000	
19.000000	
18.000000	
19.000000	
19.000000	
7.000000	
18.000000	
12.000000	
15.000000	
15.000000	
16.000000	
11.000000	
12.000000	
11.000000	
13.000000	
15.000000	
11.000000	
13.000000	
13.000000	
16.000000	
12.000000	
11.000000	
13.000000	
15.000000	
17.000000	
16.000000	
13.000000	
17.000000	
12.000000	
14.000000	
15.000000	
16.000000	
12.000000	
13.000000	
22.000000	
6.000000	
9.000000	
12.000000	
12.000000	
14.000000	
10.000000	
12.000000	
11.000000	
8.000000	
15.000000	
11.000000	
10.000000	
12.000000	
12.000000	
8.000000	
6.000000	
16.000000	
8.000000	
7.000000	
7.000000	
11.000000	
16.000000	
12.000000	
7.000000	
11.000000	
6.000000	
9.000000	
11.000000	
12.000000	
7.000000	
12.000000	
7.000000	
9.000000	
14.000000	
7.000000	
9.000000	
15.000000	
15.000000	
12.000000	
14.000000	
7.000000	
6.000000	
7.000000	
11.000000	
9.000000	
11.000000	
5.000000	
9.000000	
12.000000	
7.000000	
3.000000	
5.000000	
8.000000	
9.000000	
6.000000	
13.000000	
13.000000	
10.000000	
15.000000	
10.000000	
8.000000	
10.000000	
5.000000	
8.000000	
9.000000	
15.000000	
11.000000	
5.000000	
9.000000	
8.000000	
7.000000	
6.000000	
5.000000	
9.000000	
4.000000	
6.000000	
6.000000	
8.000000	
6.000000	
6.000000	
8.000000	
11.000000	
4.000000	
7.000000	
6.000000	
14.000000	
10.000000	
10.000000	
7.000000	
8.000000	
8.000000	
14.000000	
10.000000	
11.000000	
8.000000	
8.000000	
8.000000	
12.000000	
7.000000	
6.000000	
4.000000	
12.000000	
6.000000	
9.000000	
8.000000	
6.000000	
10.000000	
10.000000	
11.000000	
4.000000	
12.000000	
11.000000	
8.000000	
8.000000	
11.000000	
12.000000	
13.000000	
10.000000	
9.000000	
8.000000	
8.000000	
8.000000	
11.000000	
7.000000	
8.000000	
7.000000	
8.000000	
8.000000	
6.000000	
10.000000	
9.000000	
9.000000	
10.000000	
11.000000	
13.000000	
11.000000	
5.000000	
7.000000	
8.000000	
10.000000	
7.000000	
6.000000	
11.000000	
9.000000	
8.000000	
12.000000	
6.000000	
8.000000	
5.000000	
10.000000	
5.000000	
9.000000	
8.000000	
11.000000	
15.000000	
4.000000	
10.000000	
6.000000	
3.000000	
12.000000	
5.000000	
6.000000	
5.000000	
9.000000	
7.000000	
14.000000	
10.000000	
7.000000	
7.000000	
10.000000	
7.000000	
7.000000	
6.000000	
16.000000	
11.000000	
9.000000	
10.000000	
4.000000	
6.000000	
9.000000	
6.000000	
16.000000	
10.000000	
7.000000	
6.000000	
12.000000	
13.000000	
10.000000	
10.000000	
12.000000	
5.000000	
6.000000	
5.000000	
9.000000	
8.000000	
10.000000	
8.000000	
12.000000	
11.000000	
6.000000	
9.000000	
6.000000	
7.000000	
11.000000	
7.000000	
6.000000	
11.000000	
11.000000	
19.000000	
9.000000	
8.000000	
11.000000	
18.000000	
12.000000	
17.000000	
20.000000	
12.000000	
10.000000	
6.000000	
10.000000	
19.000000	
6.000000	
8.000000	
7.000000	
8.000000	
13.000000	
9.000000	
7.000000	
4.000000	
11.000000	
8.000000	
8.000000	
16.000000	
10.000000	
8.000000	
8.000000	
7.000000	
9.000000	
6.000000	
9.000000	
11.000000	
7.000000	
6.000000	
7.000000	
10.000000	
4.000000	
5.000000	
9.000000	
17.000000	
6.000000	
9.000000	
10.000000	
7.000000	
12.000000	
5.000000	
8.000000	
6.000000	
9.000000	
9.000000	
10.000000	
8.000000	
4.000000	
8.000000	
4.000000	
10.000000	
8.000000	
6.000000	
10.000000	
2.000000	
4.000000	
11.000000	
9.000000	
6.000000	
1.000000	
8.000000	
9.000000	
9.000000	
7.000000	
7.000000	
6.000000	
7.000000	
13.000000	
9.000000	
14.000000	
12.000000	
7.000000	
7.000000	
6.000000	
9.000000	
9.000000	
11.000000	
7.000000	
11.000000	
3.000000	
6.000000	
12.000000	
8.000000	
8.000000	
6.000000	
10.000000	
10.000000	
5.000000	
11.000000	
9.000000	
3.000000	
9.000000	
8.000000	
6.000000	
9.000000	
12.000000	
10.000000	
7.000000	
8.000000	
8.000000	
6.000000	
6.000000	
10.000000	
9.000000	
15.000000	
8.000000	
7.000000	
8.000000	
14.000000	
12.000000	
8.000000	
17.000000	
13.000000	
6.000000	
13.000000	
11.000000	
10.000000	
13.000000	
9.000000	
7.000000	
7.000000	
10.000000	
18.000000	
11.000000	
7.000000	
6.000000	
10.000000	
17.000000	
18.000000	
13.000000	
15.000000	
11.000000	
21.000000	
24.000000	
20.000000	
15.000000	
28.000000	
24.000000	
27.000000	
31.000000	
32.000000	
25.000000	
31.000000	
34.000000	
36.000000	
36.000000	
43.000000	
65.000000	
70.000000	
64.000000	
71.000000	
98.000000	
126.000000	
124.000000	
144.000000	
165.000000	
192.000000	
183.000000	
154.000000	
105.000000	
72.000000	
69.000000	
51.000000	
37.000000	
37.000000	
26.000000	
26.000000	
23.000000	
28.000000	
14.000000	
16.000000	
14.000000	
13.000000	
12.000000	
16.000000	
4.000000	
14.000000	
29.000000	
15.000000	
19.000000	
13.000000	
13.000000	
17.000000	
12.000000	
25.000000	
34.000000	
18.000000	
27.000000	
18.000000	
27.000000	
24.000000	
36.000000	
27.000000	
23.000000	
28.000000	
31.000000	
46.000000	
51.000000	
62.000000	
74.000000	
70.000000	
87.000000	
94.000000	
128.000000	
151.000000	
153.000000	
216.000000	
192.000000	
196.000000	
174.000000	
132.000000	
117.000000	
83.000000	
62.000000	
64.000000	
50.000000	
23.000000	
26.000000	
27.000000	
33.000000	
17.000000	
20.000000	
19.000000	
14.000000	
16.000000	
20.000000	
12.000000	
12.000000	
13.000000	
10.000000	
10.000000	
7.000000	
10.000000	
11.000000	
15.000000	
13.000000	
9.000000	
12.000000	
16.000000	
6.000000	
9.000000	
13.000000	
7.000000	
16.000000	
11.000000	
7.000000	
13.000000	
11.000000	
5.000000	
4.000000	
9.000000	
9.000000	
5.000000	
10.000000	
15.000000	
12.000000	
13.000000	
9.000000	
8.000000	
9.000000	
9.000000	
9.000000	
2.000000	
14.000000	
9.000000	
7.000000	
8.000000	
8.000000	
1.000000	
6.000000	
6.000000	
8.000000	
6.000000	
4.000000	
10.000000	
14.000000	
8.000000	
15.000000	
9.000000	
10.000000	
8.000000	
10.000000	
5.000000	
7.000000	
7.000000	
8.000000	
6.000000	
11.000000	
8.000000	
6.000000	
9.000000	
8.000000	
2.000000	
9.000000	
7.000000	
8.000000	
12.000000	
11.000000	
7.000000	
10.000000	
8.000000	
8.000000	
11.000000	
6.000000	
7.000000	
10.000000	
12.000000	
11.000000	
10.000000	
11.000000	
11.000000	
14.000000	
10.000000	
7.000000	
8.000000	
5.000000	
12.000000	
4.000000	
6.000000	
12.000000	
9.000000	
15.000000	
14.000000	
15.000000	
8.000000	
10.000000	
6.000000	
12.000000	
10.000000	
10.000000	
8.000000	
9.000000	
9.000000	
3.000000	
7.000000	
9.000000	
11.000000	
8.000000	
11.000000	
8.000000	
10.000000	
11.000000	
9.000000	
11.000000	
13.000000	
5.000000	
11.000000	
8.000000	
9.000000	
7.000000	
10.000000	
8.000000	
4.000000	
11.000000	
12.000000	
7.000000	
8.000000	
4.000000	
10.000000	
11.000000	
7.000000	
8.000000	
6.000000	
16.000000	
15.000000	
9.000000	
4.000000	
9.000000	
10.000000	
11.000000	
5.000000	
12.000000	
6.000000	
13.000000	
9.000000	
21.000000	
8.000000	
5.000000	
14.000000	
16.000000	
13.000000	
8.000000	
7.000000	
12.000000	
21.000000	
13.000000	
19.000000	
23.000000	
14.000000	
17.000000	
21.000000	
28.000000	
21.000000	
28.000000	
31.000000	
22.000000	
30.000000	
25.000000	
37.000000	
41.000000	
