;content of C:\DATA XRD\IMS_LMFO_327.raw - (Diffrac Plus V4 file)
_FILEVERSION = 3
_SAMPLE = IMS_LMFO_327
_+SAMPLE
_USER = Lab Manager
_GONIOMETER_CODE = 20
_STAGE_CODE = 7
; Goniometer : D8 theta/2theta, stage : Chi drive
_SAMPLE_CHANGER_CODE = 0
_ATTACHMENTS_CODE = 0
_GONIOMETER_RADIUS = 217.5
_FIXED_DIVSLIT = 2
_MONOCHROMATOR = 0
; Incident beam monochromator : None
_SOLLER_SLITS_2 = 2
_BETA_FILTER = N
_ANALYZER_CODE = 0
; Received beam analyzer : None
_DATEMEASURED = 22-Jul-2022 05:14:08
_RUNTIME = 1821.662
_WL_UNIT = A
_WL1 = 1.5406
_WL2 = 1.54439
_WL3 = 1.39222
_WLRATIO = 0.5
_ANODE = Cu
_V4_INF_USER = Lab Manager
_V4_INF_SAMPLEID = IMS_LMFO_327
_V4_INF_CREATOR = BrmlToV4Converter
_V4_INF_CREATOR_VERSION = 7.5.0.0

; Data for range 1
_DRIVE = COUPLED
_STEPTIME = 92.544
_STEPSIZE = 0.01973
_STEPMODE = C
_START = 10
_THETA = 5
_2THETA = 10
_PHI = 55.992188
_DETECTORSLIT = out
_TIMESTARTED = 0
_ROTATION_SPEED = 15
_KV = 40
_MA = 40
_RANGE_WL = 1.5406
_3DPLANE = 0
_V4_PSD2THETA = 9999
_V4_PSDCHANNEL1 = 0
_V4_PSDAPERTURE = 3.788144
_V4_PSDTYPE = 5
_V4_PSDFIXED = 0
_V4_COUNTERS_MASK = 1
_V4_DRIVES_MASK = 0
_V4_ENCODERS_MASK = 0
_COUNTS = 1
; Cnt2_D1	
82.000000	
93.000000	
92.000000	
69.000000	
86.000000	
73.000000	
97.000000	
105.000000	
82.000000	
86.000000	
83.000000	
77.000000	
75.000000	
85.000000	
98.000000	
83.000000	
74.000000	
85.000000	
81.000000	
83.000000	
84.000000	
68.000000	
90.000000	
61.000000	
100.000000	
76.000000	
89.000000	
82.000000	
82.000000	
78.000000	
80.000000	
91.000000	
71.000000	
78.000000	
87.000000	
90.000000	
73.000000	
70.000000	
87.000000	
83.000000	
60.000000	
86.000000	
69.000000	
74.000000	
70.000000	
74.000000	
87.000000	
76.000000	
75.000000	
55.000000	
69.000000	
65.000000	
86.000000	
83.000000	
67.000000	
65.000000	
86.000000	
73.000000	
84.000000	
60.000000	
67.000000	
66.000000	
73.000000	
74.000000	
66.000000	
75.000000	
71.000000	
75.000000	
66.000000	
68.000000	
70.000000	
68.000000	
70.000000	
50.000000	
55.000000	
78.000000	
77.000000	
69.000000	
62.000000	
49.000000	
76.000000	
87.000000	
69.000000	
61.000000	
56.000000	
58.000000	
72.000000	
59.000000	
63.000000	
72.000000	
73.000000	
71.000000	
58.000000	
61.000000	
63.000000	
69.000000	
70.000000	
59.000000	
61.000000	
73.000000	
69.000000	
74.000000	
63.000000	
75.000000	
66.000000	
63.000000	
67.000000	
74.000000	
77.000000	
63.000000	
65.000000	
65.000000	
54.000000	
58.000000	
58.000000	
71.000000	
58.000000	
74.000000	
61.000000	
64.000000	
70.000000	
68.000000	
69.000000	
54.000000	
64.000000	
64.000000	
69.000000	
49.000000	
54.000000	
82.000000	
58.000000	
68.000000	
62.000000	
64.000000	
59.000000	
59.000000	
65.000000	
56.000000	
62.000000	
63.000000	
68.000000	
54.000000	
66.000000	
51.000000	
66.000000	
66.000000	
55.000000	
58.000000	
60.000000	
52.000000	
60.000000	
51.000000	
54.000000	
68.000000	
61.000000	
55.000000	
67.000000	
52.000000	
58.000000	
62.000000	
55.000000	
86.000000	
62.000000	
56.000000	
71.000000	
57.000000	
68.000000	
67.000000	
61.000000	
58.000000	
55.000000	
60.000000	
82.000000	
50.000000	
44.000000	
62.000000	
45.000000	
48.000000	
61.000000	
59.000000	
54.000000	
62.000000	
58.000000	
52.000000	
48.000000	
59.000000	
48.000000	
54.000000	
58.000000	
56.000000	
55.000000	
51.000000	
51.000000	
60.000000	
53.000000	
66.000000	
48.000000	
49.000000	
59.000000	
61.000000	
53.000000	
66.000000	
49.000000	
56.000000	
48.000000	
47.000000	
60.000000	
41.000000	
53.000000	
47.000000	
54.000000	
50.000000	
48.000000	
47.000000	
65.000000	
49.000000	
56.000000	
52.000000	
48.000000	
51.000000	
57.000000	
50.000000	
31.000000	
53.000000	
60.000000	
47.000000	
49.000000	
54.000000	
43.000000	
47.000000	
46.000000	
59.000000	
35.000000	
37.000000	
46.000000	
45.000000	
46.000000	
59.000000	
53.000000	
53.000000	
39.000000	
54.000000	
34.000000	
48.000000	
64.000000	
41.000000	
48.000000	
50.000000	
47.000000	
45.000000	
47.000000	
44.000000	
45.000000	
57.000000	
44.000000	
45.000000	
44.000000	
41.000000	
45.000000	
43.000000	
53.000000	
45.000000	
49.000000	
51.000000	
46.000000	
34.000000	
48.000000	
51.000000	
40.000000	
40.000000	
59.000000	
45.000000	
43.000000	
52.000000	
49.000000	
54.000000	
41.000000	
45.000000	
40.000000	
37.000000	
39.000000	
51.000000	
54.000000	
41.000000	
44.000000	
46.000000	
41.000000	
31.000000	
38.000000	
47.000000	
44.000000	
42.000000	
48.000000	
39.000000	
40.000000	
45.000000	
34.000000	
41.000000	
42.000000	
36.000000	
52.000000	
40.000000	
50.000000	
43.000000	
38.000000	
43.000000	
40.000000	
38.000000	
39.000000	
45.000000	
44.000000	
50.000000	
34.000000	
37.000000	
38.000000	
53.000000	
40.000000	
39.000000	
47.000000	
52.000000	
35.000000	
36.000000	
29.000000	
47.000000	
41.000000	
40.000000	
31.000000	
35.000000	
36.000000	
43.000000	
57.000000	
39.000000	
32.000000	
37.000000	
41.000000	
45.000000	
46.000000	
44.000000	
44.000000	
50.000000	
37.000000	
53.000000	
39.000000	
36.000000	
46.000000	
38.000000	
40.000000	
47.000000	
45.000000	
45.000000	
38.000000	
41.000000	
44.000000	
35.000000	
39.000000	
38.000000	
40.000000	
48.000000	
37.000000	
47.000000	
36.000000	
36.000000	
48.000000	
45.000000	
39.000000	
43.000000	
39.000000	
43.000000	
22.000000	
37.000000	
52.000000	
41.000000	
41.000000	
38.000000	
37.000000	
34.000000	
35.000000	
35.000000	
44.000000	
34.000000	
30.000000	
39.000000	
36.000000	
40.000000	
42.000000	
36.000000	
45.000000	
41.000000	
33.000000	
30.000000	
34.000000	
46.000000	
39.000000	
50.000000	
49.000000	
38.000000	
36.000000	
45.000000	
43.000000	
44.000000	
47.000000	
39.000000	
46.000000	
45.000000	
42.000000	
41.000000	
43.000000	
43.000000	
59.000000	
62.000000	
61.000000	
54.000000	
53.000000	
49.000000	
70.000000	
62.000000	
74.000000	
62.000000	
72.000000	
74.000000	
72.000000	
72.000000	
94.000000	
87.000000	
97.000000	
118.000000	
105.000000	
145.000000	
135.000000	
140.000000	
167.000000	
218.000000	
266.000000	
411.000000	
603.000000	
1017.000000	
1826.000000	
3004.000000	
4744.000000	
6477.000000	
6595.000000	
4302.000000	
2143.000000	
978.000000	
565.000000	
341.000000	
219.000000	
161.000000	
148.000000	
129.000000	
86.000000	
81.000000	
77.000000	
58.000000	
58.000000	
57.000000	
45.000000	
64.000000	
65.000000	
55.000000	
44.000000	
63.000000	
45.000000	
38.000000	
42.000000	
50.000000	
40.000000	
43.000000	
49.000000	
38.000000	
39.000000	
41.000000	
32.000000	
38.000000	
33.000000	
37.000000	
45.000000	
33.000000	
32.000000	
50.000000	
40.000000	
36.000000	
23.000000	
41.000000	
32.000000	
42.000000	
34.000000	
49.000000	
36.000000	
41.000000	
38.000000	
39.000000	
34.000000	
36.000000	
31.000000	
33.000000	
29.000000	
29.000000	
33.000000	
35.000000	
36.000000	
34.000000	
43.000000	
31.000000	
40.000000	
27.000000	
33.000000	
28.000000	
23.000000	
37.000000	
36.000000	
37.000000	
39.000000	
52.000000	
44.000000	
29.000000	
44.000000	
32.000000	
35.000000	
40.000000	
46.000000	
30.000000	
24.000000	
21.000000	
23.000000	
26.000000	
18.000000	
32.000000	
25.000000	
21.000000	
27.000000	
26.000000	
39.000000	
26.000000	
32.000000	
27.000000	
29.000000	
34.000000	
26.000000	
31.000000	
30.000000	
30.000000	
36.000000	
26.000000	
28.000000	
31.000000	
30.000000	
27.000000	
23.000000	
32.000000	
29.000000	
19.000000	
35.000000	
29.000000	
34.000000	
27.000000	
26.000000	
34.000000	
29.000000	
34.000000	
35.000000	
26.000000	
29.000000	
30.000000	
30.000000	
37.000000	
26.000000	
28.000000	
27.000000	
30.000000	
33.000000	
30.000000	
24.000000	
27.000000	
27.000000	
34.000000	
33.000000	
28.000000	
28.000000	
30.000000	
28.000000	
31.000000	
21.000000	
29.000000	
30.000000	
23.000000	
29.000000	
32.000000	
36.000000	
29.000000	
33.000000	
27.000000	
29.000000	
30.000000	
22.000000	
28.000000	
27.000000	
35.000000	
21.000000	
29.000000	
25.000000	
25.000000	
33.000000	
22.000000	
30.000000	
34.000000	
28.000000	
32.000000	
29.000000	
23.000000	
26.000000	
23.000000	
30.000000	
31.000000	
28.000000	
17.000000	
22.000000	
26.000000	
24.000000	
32.000000	
20.000000	
21.000000	
21.000000	
16.000000	
27.000000	
24.000000	
27.000000	
27.000000	
29.000000	
24.000000	
21.000000	
20.000000	
30.000000	
20.000000	
24.000000	
20.000000	
31.000000	
29.000000	
31.000000	
39.000000	
16.000000	
29.000000	
25.000000	
27.000000	
22.000000	
37.000000	
29.000000	
21.000000	
34.000000	
25.000000	
27.000000	
29.000000	
27.000000	
22.000000	
19.000000	
26.000000	
20.000000	
17.000000	
22.000000	
26.000000	
26.000000	
29.000000	
27.000000	
28.000000	
18.000000	
28.000000	
21.000000	
27.000000	
33.000000	
29.000000	
26.000000	
27.000000	
24.000000	
33.000000	
22.000000	
20.000000	
31.000000	
21.000000	
29.000000	
31.000000	
24.000000	
28.000000	
35.000000	
28.000000	
21.000000	
32.000000	
29.000000	
24.000000	
37.000000	
27.000000	
24.000000	
31.000000	
28.000000	
29.000000	
18.000000	
31.000000	
26.000000	
28.000000	
21.000000	
21.000000	
20.000000	
23.000000	
25.000000	
22.000000	
26.000000	
27.000000	
15.000000	
24.000000	
18.000000	
23.000000	
28.000000	
20.000000	
28.000000	
20.000000	
21.000000	
16.000000	
21.000000	
17.000000	
26.000000	
20.000000	
17.000000	
16.000000	
22.000000	
20.000000	
34.000000	
24.000000	
19.000000	
26.000000	
19.000000	
22.000000	
32.000000	
22.000000	
18.000000	
20.000000	
20.000000	
18.000000	
21.000000	
19.000000	
16.000000	
26.000000	
19.000000	
25.000000	
19.000000	
17.000000	
27.000000	
18.000000	
20.000000	
18.000000	
24.000000	
16.000000	
23.000000	
32.000000	
23.000000	
22.000000	
27.000000	
19.000000	
15.000000	
21.000000	
18.000000	
25.000000	
21.000000	
28.000000	
25.000000	
30.000000	
33.000000	
26.000000	
30.000000	
29.000000	
15.000000	
32.000000	
28.000000	
20.000000	
20.000000	
23.000000	
15.000000	
23.000000	
17.000000	
23.000000	
15.000000	
18.000000	
24.000000	
13.000000	
24.000000	
26.000000	
23.000000	
27.000000	
14.000000	
20.000000	
23.000000	
22.000000	
22.000000	
24.000000	
24.000000	
30.000000	
17.000000	
16.000000	
23.000000	
25.000000	
26.000000	
17.000000	
17.000000	
23.000000	
16.000000	
24.000000	
15.000000	
28.000000	
20.000000	
17.000000	
19.000000	
25.000000	
16.000000	
30.000000	
20.000000	
20.000000	
21.000000	
25.000000	
18.000000	
25.000000	
15.000000	
25.000000	
24.000000	
27.000000	
21.000000	
20.000000	
16.000000	
18.000000	
18.000000	
15.000000	
16.000000	
19.000000	
26.000000	
20.000000	
14.000000	
28.000000	
18.000000	
15.000000	
19.000000	
17.000000	
20.000000	
14.000000	
27.000000	
18.000000	
21.000000	
23.000000	
28.000000	
19.000000	
29.000000	
24.000000	
23.000000	
18.000000	
10.000000	
27.000000	
19.000000	
15.000000	
18.000000	
16.000000	
21.000000	
19.000000	
14.000000	
18.000000	
9.000000	
23.000000	
12.000000	
22.000000	
12.000000	
17.000000	
17.000000	
18.000000	
18.000000	
17.000000	
29.000000	
31.000000	
14.000000	
21.000000	
18.000000	
19.000000	
25.000000	
17.000000	
19.000000	
26.000000	
25.000000	
16.000000	
13.000000	
22.000000	
23.000000	
20.000000	
21.000000	
20.000000	
20.000000	
15.000000	
19.000000	
13.000000	
26.000000	
20.000000	
16.000000	
26.000000	
13.000000	
14.000000	
14.000000	
17.000000	
14.000000	
17.000000	
30.000000	
19.000000	
24.000000	
26.000000	
26.000000	
20.000000	
16.000000	
19.000000	
24.000000	
22.000000	
17.000000	
18.000000	
25.000000	
18.000000	
23.000000	
23.000000	
18.000000	
22.000000	
19.000000	
20.000000	
21.000000	
18.000000	
16.000000	
18.000000	
17.000000	
23.000000	
14.000000	
23.000000	
22.000000	
23.000000	
22.000000	
16.000000	
13.000000	
20.000000	
25.000000	
24.000000	
19.000000	
25.000000	
15.000000	
16.000000	
16.000000	
16.000000	
18.000000	
19.000000	
26.000000	
18.000000	
21.000000	
15.000000	
13.000000	
29.000000	
22.000000	
15.000000	
18.000000	
15.000000	
23.000000	
16.000000	
17.000000	
14.000000	
22.000000	
19.000000	
18.000000	
31.000000	
17.000000	
16.000000	
19.000000	
28.000000	
19.000000	
23.000000	
18.000000	
21.000000	
23.000000	
16.000000	
22.000000	
30.000000	
18.000000	
18.000000	
7.000000	
26.000000	
19.000000	
22.000000	
19.000000	
17.000000	
21.000000	
20.000000	
17.000000	
28.000000	
19.000000	
29.000000	
18.000000	
25.000000	
23.000000	
17.000000	
18.000000	
22.000000	
20.000000	
20.000000	
16.000000	
24.000000	
15.000000	
21.000000	
13.000000	
20.000000	
19.000000	
21.000000	
24.000000	
27.000000	
20.000000	
24.000000	
21.000000	
25.000000	
23.000000	
19.000000	
26.000000	
18.000000	
31.000000	
26.000000	
27.000000	
21.000000	
23.000000	
18.000000	
29.000000	
25.000000	
29.000000	
18.000000	
24.000000	
27.000000	
21.000000	
25.000000	
22.000000	
22.000000	
22.000000	
21.000000	
25.000000	
30.000000	
36.000000	
21.000000	
17.000000	
38.000000	
30.000000	
51.000000	
122.000000	
111.000000	
176.000000	
197.000000	
148.000000	
80.000000	
59.000000	
34.000000	
19.000000	
23.000000	
18.000000	
18.000000	
26.000000	
20.000000	
30.000000	
21.000000	
19.000000	
16.000000	
21.000000	
27.000000	
20.000000	
21.000000	
14.000000	
14.000000	
27.000000	
21.000000	
13.000000	
14.000000	
21.000000	
18.000000	
16.000000	
18.000000	
17.000000	
23.000000	
20.000000	
19.000000	
15.000000	
18.000000	
26.000000	
14.000000	
17.000000	
11.000000	
16.000000	
16.000000	
16.000000	
19.000000	
10.000000	
17.000000	
15.000000	
22.000000	
14.000000	
17.000000	
6.000000	
9.000000	
24.000000	
17.000000	
9.000000	
21.000000	
8.000000	
14.000000	
17.000000	
26.000000	
16.000000	
16.000000	
16.000000	
12.000000	
13.000000	
16.000000	
20.000000	
13.000000	
14.000000	
17.000000	
11.000000	
13.000000	
18.000000	
11.000000	
22.000000	
24.000000	
11.000000	
16.000000	
22.000000	
17.000000	
19.000000	
17.000000	
15.000000	
21.000000	
15.000000	
23.000000	
21.000000	
10.000000	
17.000000	
15.000000	
18.000000	
16.000000	
15.000000	
14.000000	
14.000000	
20.000000	
14.000000	
14.000000	
14.000000	
21.000000	
20.000000	
13.000000	
11.000000	
24.000000	
20.000000	
18.000000	
13.000000	
17.000000	
19.000000	
14.000000	
14.000000	
18.000000	
16.000000	
21.000000	
18.000000	
20.000000	
14.000000	
17.000000	
19.000000	
16.000000	
15.000000	
20.000000	
18.000000	
19.000000	
23.000000	
18.000000	
19.000000	
8.000000	
22.000000	
13.000000	
18.000000	
19.000000	
17.000000	
20.000000	
15.000000	
21.000000	
17.000000	
17.000000	
13.000000	
14.000000	
16.000000	
21.000000	
17.000000	
19.000000	
11.000000	
21.000000	
17.000000	
21.000000	
17.000000	
20.000000	
19.000000	
18.000000	
14.000000	
23.000000	
17.000000	
9.000000	
19.000000	
15.000000	
16.000000	
25.000000	
11.000000	
16.000000	
16.000000	
19.000000	
16.000000	
16.000000	
20.000000	
16.000000	
14.000000	
20.000000	
16.000000	
17.000000	
9.000000	
19.000000	
18.000000	
14.000000	
19.000000	
16.000000	
17.000000	
18.000000	
20.000000	
20.000000	
18.000000	
19.000000	
10.000000	
19.000000	
16.000000	
14.000000	
14.000000	
20.000000	
21.000000	
13.000000	
17.000000	
18.000000	
21.000000	
17.000000	
20.000000	
19.000000	
21.000000	
18.000000	
12.000000	
12.000000	
21.000000	
14.000000	
17.000000	
10.000000	
17.000000	
21.000000	
17.000000	
15.000000	
11.000000	
18.000000	
15.000000	
15.000000	
17.000000	
22.000000	
26.000000	
19.000000	
16.000000	
24.000000	
12.000000	
21.000000	
17.000000	
29.000000	
21.000000	
22.000000	
19.000000	
17.000000	
18.000000	
21.000000	
27.000000	
13.000000	
16.000000	
26.000000	
27.000000	
18.000000	
22.000000	
25.000000	
26.000000	
23.000000	
22.000000	
30.000000	
27.000000	
38.000000	
34.000000	
32.000000	
31.000000	
37.000000	
36.000000	
33.000000	
48.000000	
45.000000	
56.000000	
56.000000	
70.000000	
52.000000	
58.000000	
85.000000	
64.000000	
95.000000	
90.000000	
100.000000	
105.000000	
114.000000	
97.000000	
125.000000	
124.000000	
172.000000	
210.000000	
297.000000	
413.000000	
684.000000	
1142.000000	
1996.000000	
3195.000000	
4262.000000	
4321.000000	
2967.000000	
1628.000000	
927.000000	
529.000000	
341.000000	
265.000000	
203.000000	
155.000000	
117.000000	
63.000000	
70.000000	
49.000000	
56.000000	
45.000000	
33.000000	
34.000000	
23.000000	
26.000000	
19.000000	
25.000000	
19.000000	
29.000000	
18.000000	
21.000000	
17.000000	
13.000000	
18.000000	
30.000000	
20.000000	
15.000000	
24.000000	
19.000000	
18.000000	
18.000000	
18.000000	
20.000000	
24.000000	
14.000000	
22.000000	
20.000000	
14.000000	
14.000000	
25.000000	
14.000000	
20.000000	
12.000000	
18.000000	
17.000000	
17.000000	
17.000000	
17.000000	
12.000000	
17.000000	
24.000000	
12.000000	
16.000000	
14.000000	
19.000000	
31.000000	
13.000000	
18.000000	
16.000000	
22.000000	
23.000000	
27.000000	
16.000000	
11.000000	
18.000000	
25.000000	
25.000000	
31.000000	
31.000000	
40.000000	
37.000000	
42.000000	
49.000000	
61.000000	
105.000000	
149.000000	
222.000000	
413.000000	
593.000000	
786.000000	
675.000000	
493.000000	
271.000000	
168.000000	
113.000000	
82.000000	
61.000000	
35.000000	
28.000000	
34.000000	
29.000000	
27.000000	
23.000000	
20.000000	
17.000000	
17.000000	
11.000000	
15.000000	
19.000000	
20.000000	
21.000000	
19.000000	
15.000000	
14.000000	
14.000000	
12.000000	
19.000000	
11.000000	
11.000000	
10.000000	
10.000000	
11.000000	
12.000000	
12.000000	
14.000000	
18.000000	
15.000000	
10.000000	
12.000000	
14.000000	
20.000000	
4.000000	
14.000000	
9.000000	
11.000000	
12.000000	
10.000000	
11.000000	
13.000000	
16.000000	
16.000000	
15.000000	
24.000000	
19.000000	
23.000000	
7.000000	
13.000000	
15.000000	
11.000000	
8.000000	
11.000000	
12.000000	
12.000000	
19.000000	
15.000000	
12.000000	
8.000000	
16.000000	
14.000000	
18.000000	
18.000000	
13.000000	
16.000000	
19.000000	
11.000000	
14.000000	
19.000000	
9.000000	
11.000000	
8.000000	
18.000000	
9.000000	
13.000000	
19.000000	
17.000000	
11.000000	
16.000000	
9.000000	
13.000000	
21.000000	
25.000000	
12.000000	
13.000000	
18.000000	
15.000000	
20.000000	
8.000000	
16.000000	
14.000000	
14.000000	
14.000000	
13.000000	
14.000000	
11.000000	
17.000000	
9.000000	
15.000000	
11.000000	
9.000000	
12.000000	
13.000000	
17.000000	
18.000000	
11.000000	
16.000000	
6.000000	
12.000000	
11.000000	
15.000000	
10.000000	
17.000000	
13.000000	
14.000000	
14.000000	
17.000000	
7.000000	
11.000000	
13.000000	
13.000000	
12.000000	
16.000000	
11.000000	
12.000000	
21.000000	
8.000000	
16.000000	
12.000000	
12.000000	
14.000000	
10.000000	
14.000000	
7.000000	
15.000000	
11.000000	
15.000000	
9.000000	
13.000000	
9.000000	
10.000000	
18.000000	
14.000000	
12.000000	
11.000000	
16.000000	
13.000000	
7.000000	
13.000000	
11.000000	
12.000000	
10.000000	
14.000000	
12.000000	
11.000000	
22.000000	
11.000000	
10.000000	
12.000000	
17.000000	
12.000000	
18.000000	
13.000000	
20.000000	
6.000000	
16.000000	
14.000000	
19.000000	
16.000000	
11.000000	
12.000000	
15.000000	
9.000000	
16.000000	
9.000000	
11.000000	
11.000000	
10.000000	
13.000000	
10.000000	
17.000000	
6.000000	
13.000000	
10.000000	
13.000000	
19.000000	
18.000000	
13.000000	
7.000000	
10.000000	
9.000000	
10.000000	
15.000000	
13.000000	
9.000000	
9.000000	
16.000000	
15.000000	
9.000000	
10.000000	
12.000000	
7.000000	
12.000000	
13.000000	
7.000000	
5.000000	
11.000000	
12.000000	
11.000000	
20.000000	
9.000000	
15.000000	
12.000000	
15.000000	
20.000000	
8.000000	
14.000000	
14.000000	
7.000000	
11.000000	
13.000000	
15.000000	
14.000000	
2.000000	
13.000000	
21.000000	
8.000000	
16.000000	
21.000000	
10.000000	
15.000000	
16.000000	
13.000000	
13.000000	
19.000000	
15.000000	
14.000000	
11.000000	
15.000000	
19.000000	
11.000000	
14.000000	
10.000000	
14.000000	
15.000000	
19.000000	
19.000000	
15.000000	
17.000000	
14.000000	
4.000000	
15.000000	
19.000000	
17.000000	
15.000000	
19.000000	
17.000000	
11.000000	
20.000000	
14.000000	
22.000000	
9.000000	
15.000000	
17.000000	
19.000000	
15.000000	
24.000000	
21.000000	
23.000000	
34.000000	
28.000000	
34.000000	
33.000000	
30.000000	
39.000000	
37.000000	
40.000000	
49.000000	
68.000000	
36.000000	
60.000000	
62.000000	
74.000000	
77.000000	
78.000000	
58.000000	
83.000000	
103.000000	
83.000000	
98.000000	
126.000000	
152.000000	
190.000000	
284.000000	
475.000000	
725.000000	
1277.000000	
2056.000000	
3015.000000	
3851.000000	
3484.000000	
2371.000000	
1521.000000	
939.000000	
554.000000	
378.000000	
294.000000	
217.000000	
146.000000	
138.000000	
100.000000	
90.000000	
66.000000	
55.000000	
53.000000	
46.000000	
41.000000	
39.000000	
26.000000	
28.000000	
24.000000	
33.000000	
21.000000	
29.000000	
14.000000	
19.000000	
18.000000	
18.000000	
23.000000	
13.000000	
17.000000	
23.000000	
16.000000	
14.000000	
15.000000	
13.000000	
22.000000	
17.000000	
15.000000	
14.000000	
21.000000	
14.000000	
13.000000	
16.000000	
8.000000	
18.000000	
12.000000	
13.000000	
22.000000	
17.000000	
8.000000	
14.000000	
17.000000	
12.000000	
15.000000	
9.000000	
17.000000	
14.000000	
15.000000	
18.000000	
8.000000	
18.000000	
12.000000	
12.000000	
12.000000	
15.000000	
23.000000	
18.000000	
19.000000	
15.000000	
11.000000	
13.000000	
21.000000	
10.000000	
11.000000	
12.000000	
20.000000	
15.000000	
12.000000	
13.000000	
15.000000	
9.000000	
19.000000	
10.000000	
11.000000	
15.000000	
5.000000	
12.000000	
9.000000	
19.000000	
14.000000	
10.000000	
8.000000	
11.000000	
9.000000	
18.000000	
16.000000	
14.000000	
18.000000	
10.000000	
18.000000	
19.000000	
16.000000	
13.000000	
14.000000	
8.000000	
11.000000	
11.000000	
14.000000	
15.000000	
11.000000	
7.000000	
20.000000	
15.000000	
14.000000	
7.000000	
5.000000	
15.000000	
10.000000	
13.000000	
10.000000	
15.000000	
8.000000	
16.000000	
10.000000	
12.000000	
15.000000	
9.000000	
7.000000	
11.000000	
12.000000	
12.000000	
13.000000	
15.000000	
15.000000	
16.000000	
13.000000	
9.000000	
18.000000	
11.000000	
10.000000	
6.000000	
9.000000	
11.000000	
10.000000	
8.000000	
7.000000	
11.000000	
15.000000	
12.000000	
11.000000	
14.000000	
12.000000	
11.000000	
13.000000	
11.000000	
9.000000	
7.000000	
13.000000	
19.000000	
12.000000	
14.000000	
11.000000	
11.000000	
11.000000	
16.000000	
14.000000	
11.000000	
15.000000	
6.000000	
12.000000	
15.000000	
10.000000	
14.000000	
14.000000	
9.000000	
21.000000	
13.000000	
16.000000	
7.000000	
19.000000	
13.000000	
13.000000	
12.000000	
20.000000	
18.000000	
21.000000	
11.000000	
14.000000	
13.000000	
22.000000	
23.000000	
15.000000	
24.000000	
26.000000	
27.000000	
19.000000	
16.000000	
23.000000	
30.000000	
30.000000	
28.000000	
38.000000	
60.000000	
82.000000	
135.000000	
198.000000	
340.000000	
435.000000	
567.000000	
509.000000	
343.000000	
251.000000	
143.000000	
98.000000	
78.000000	
60.000000	
42.000000	
41.000000	
25.000000	
29.000000	
27.000000	
17.000000	
24.000000	
20.000000	
16.000000	
16.000000	
14.000000	
12.000000	
15.000000	
16.000000	
8.000000	
13.000000	
17.000000	
13.000000	
14.000000	
15.000000	
18.000000	
16.000000	
3.000000	
15.000000	
10.000000	
5.000000	
20.000000	
11.000000	
10.000000	
14.000000	
12.000000	
14.000000	
12.000000	
13.000000	
11.000000	
13.000000	
11.000000	
17.000000	
15.000000	
19.000000	
10.000000	
7.000000	
15.000000	
18.000000	
10.000000	
13.000000	
11.000000	
16.000000	
7.000000	
13.000000	
14.000000	
13.000000	
13.000000	
18.000000	
12.000000	
12.000000	
13.000000	
9.000000	
5.000000	
16.000000	
12.000000	
10.000000	
18.000000	
21.000000	
8.000000	
13.000000	
8.000000	
11.000000	
15.000000	
16.000000	
14.000000	
17.000000	
13.000000	
12.000000	
11.000000	
10.000000	
16.000000	
7.000000	
13.000000	
14.000000	
9.000000	
16.000000	
9.000000	
10.000000	
11.000000	
11.000000	
13.000000	
13.000000	
10.000000	
9.000000	
13.000000	
7.000000	
6.000000	
9.000000	
11.000000	
9.000000	
13.000000	
15.000000	
13.000000	
10.000000	
8.000000	
9.000000	
16.000000	
11.000000	
13.000000	
8.000000	
10.000000	
14.000000	
14.000000	
6.000000	
9.000000	
11.000000	
14.000000	
12.000000	
11.000000	
12.000000	
11.000000	
12.000000	
17.000000	
10.000000	
18.000000	
15.000000	
16.000000	
10.000000	
15.000000	
18.000000	
9.000000	
11.000000	
15.000000	
12.000000	
8.000000	
16.000000	
11.000000	
9.000000	
14.000000	
8.000000	
13.000000	
12.000000	
12.000000	
9.000000	
10.000000	
12.000000	
12.000000	
14.000000	
6.000000	
16.000000	
17.000000	
15.000000	
13.000000	
7.000000	
12.000000	
7.000000	
18.000000	
16.000000	
16.000000	
11.000000	
15.000000	
13.000000	
11.000000	
10.000000	
15.000000	
13.000000	
16.000000	
13.000000	
9.000000	
7.000000	
17.000000	
13.000000	
11.000000	
15.000000	
9.000000	
7.000000	
13.000000	
8.000000	
13.000000	
15.000000	
11.000000	
8.000000	
14.000000	
9.000000	
9.000000	
18.000000	
10.000000	
12.000000	
7.000000	
11.000000	
10.000000	
12.000000	
11.000000	
12.000000	
9.000000	
11.000000	
12.000000	
17.000000	
12.000000	
12.000000	
10.000000	
14.000000	
12.000000	
13.000000	
11.000000	
10.000000	
15.000000	
11.000000	
12.000000	
12.000000	
10.000000	
14.000000	
10.000000	
18.000000	
6.000000	
12.000000	
6.000000	
9.000000	
21.000000	
15.000000	
10.000000	
11.000000	
13.000000	
9.000000	
14.000000	
15.000000	
14.000000	
24.000000	
10.000000	
11.000000	
16.000000	
10.000000	
5.000000	
14.000000	
15.000000	
13.000000	
11.000000	
21.000000	
13.000000	
5.000000	
15.000000	
17.000000	
14.000000	
12.000000	
6.000000	
12.000000	
11.000000	
16.000000	
10.000000	
11.000000	
15.000000	
19.000000	
16.000000	
17.000000	
17.000000	
10.000000	
17.000000	
10.000000	
8.000000	
11.000000	
9.000000	
18.000000	
5.000000	
18.000000	
11.000000	
12.000000	
10.000000	
13.000000	
19.000000	
13.000000	
8.000000	
12.000000	
13.000000	
9.000000	
11.000000	
12.000000	
12.000000	
14.000000	
11.000000	
13.000000	
11.000000	
13.000000	
12.000000	
14.000000	
14.000000	
18.000000	
10.000000	
13.000000	
10.000000	
14.000000	
14.000000	
14.000000	
17.000000	
18.000000	
20.000000	
13.000000	
19.000000	
10.000000	
17.000000	
11.000000	
11.000000	
9.000000	
13.000000	
12.000000	
17.000000	
12.000000	
13.000000	
20.000000	
13.000000	
12.000000	
15.000000	
15.000000	
17.000000	
15.000000	
16.000000	
20.000000	
27.000000	
35.000000	
43.000000	
38.000000	
36.000000	
28.000000	
22.000000	
16.000000	
15.000000	
15.000000	
19.000000	
16.000000	
13.000000	
15.000000	
15.000000	
14.000000	
8.000000	
10.000000	
12.000000	
15.000000	
13.000000	
8.000000	
15.000000	
17.000000	
7.000000	
9.000000	
18.000000	
7.000000	
15.000000	
11.000000	
10.000000	
9.000000	
16.000000	
8.000000	
7.000000	
7.000000	
16.000000	
9.000000	
16.000000	
6.000000	
14.000000	
18.000000	
11.000000	
14.000000	
9.000000	
7.000000	
9.000000	
14.000000	
17.000000	
18.000000	
7.000000	
12.000000	
11.000000	
12.000000	
9.000000	
4.000000	
9.000000	
11.000000	
14.000000	
14.000000	
13.000000	
12.000000	
16.000000	
9.000000	
16.000000	
13.000000	
14.000000	
14.000000	
21.000000	
11.000000	
10.000000	
11.000000	
13.000000	
16.000000	
18.000000	
12.000000	
16.000000	
19.000000	
18.000000	
11.000000	
17.000000	
10.000000	
12.000000	
12.000000	
14.000000	
9.000000	
10.000000	
13.000000	
14.000000	
11.000000	
14.000000	
16.000000	
12.000000	
12.000000	
17.000000	
15.000000	
9.000000	
9.000000	
13.000000	
11.000000	
12.000000	
17.000000	
14.000000	
15.000000	
11.000000	
12.000000	
22.000000	
18.000000	
6.000000	
10.000000	
14.000000	
10.000000	
10.000000	
11.000000	
13.000000	
9.000000	
17.000000	
12.000000	
14.000000	
19.000000	
7.000000	
17.000000	
9.000000	
21.000000	
17.000000	
16.000000	
12.000000	
19.000000	
14.000000	
13.000000	
6.000000	
14.000000	
18.000000	
10.000000	
15.000000	
13.000000	
11.000000	
11.000000	
21.000000	
16.000000	
11.000000	
15.000000	
18.000000	
11.000000	
19.000000	
19.000000	
19.000000	
16.000000	
15.000000	
15.000000	
16.000000	
18.000000	
21.000000	
20.000000	
14.000000	
16.000000	
19.000000	
23.000000	
23.000000	
26.000000	
30.000000	
25.000000	
27.000000	
29.000000	
28.000000	
34.000000	
41.000000	
46.000000	
38.000000	
50.000000	
36.000000	
55.000000	
65.000000	
52.000000	
64.000000	
75.000000	
113.000000	
125.000000	
198.000000	
266.000000	
398.000000	
614.000000	
850.000000	
1263.000000	
1312.000000	
1199.000000	
858.000000	
637.000000	
414.000000	
253.000000	
185.000000	
158.000000	
106.000000	
92.000000	
76.000000	
72.000000	
56.000000	
40.000000	
35.000000	
34.000000	
38.000000	
16.000000	
22.000000	
35.000000	
31.000000	
16.000000	
16.000000	
22.000000	
10.000000	
21.000000	
17.000000	
16.000000	
9.000000	
10.000000	
19.000000	
12.000000	
9.000000	
11.000000	
13.000000	
15.000000	
16.000000	
8.000000	
13.000000	
14.000000	
15.000000	
12.000000	
20.000000	
16.000000	
18.000000	
15.000000	
21.000000	
12.000000	
11.000000	
15.000000	
18.000000	
16.000000	
13.000000	
12.000000	
19.000000	
16.000000	
13.000000	
15.000000	
15.000000	
19.000000	
13.000000	
9.000000	
7.000000	
18.000000	
9.000000	
19.000000	
7.000000	
11.000000	
8.000000	
14.000000	
6.000000	
9.000000	
8.000000	
11.000000	
7.000000	
17.000000	
14.000000	
11.000000	
9.000000	
12.000000	
6.000000	
8.000000	
19.000000	
12.000000	
15.000000	
11.000000	
10.000000	
5.000000	
13.000000	
13.000000	
14.000000	
12.000000	
10.000000	
15.000000	
5.000000	
8.000000	
10.000000	
10.000000	
13.000000	
13.000000	
11.000000	
13.000000	
17.000000	
10.000000	
9.000000	
10.000000	
11.000000	
16.000000	
17.000000	
8.000000	
13.000000	
8.000000	
8.000000	
15.000000	
15.000000	
9.000000	
13.000000	
10.000000	
9.000000	
6.000000	
10.000000	
12.000000	
11.000000	
8.000000	
10.000000	
8.000000	
5.000000	
9.000000	
9.000000	
9.000000	
10.000000	
12.000000	
4.000000	
9.000000	
7.000000	
9.000000	
12.000000	
25.000000	
13.000000	
10.000000	
16.000000	
15.000000	
14.000000	
14.000000	
19.000000	
10.000000	
11.000000	
11.000000	
7.000000	
5.000000	
10.000000	
4.000000	
10.000000	
10.000000	
7.000000	
12.000000	
14.000000	
15.000000	
10.000000	
15.000000	
7.000000	
7.000000	
16.000000	
9.000000	
10.000000	
4.000000	
17.000000	
11.000000	
14.000000	
11.000000	
20.000000	
18.000000	
14.000000	
15.000000	
8.000000	
9.000000	
13.000000	
14.000000	
12.000000	
14.000000	
13.000000	
12.000000	
11.000000	
15.000000	
23.000000	
13.000000	
15.000000	
7.000000	
15.000000	
9.000000	
15.000000	
13.000000	
9.000000	
16.000000	
15.000000	
11.000000	
13.000000	
13.000000	
15.000000	
8.000000	
15.000000	
17.000000	
19.000000	
10.000000	
15.000000	
22.000000	
16.000000	
6.000000	
19.000000	
20.000000	
16.000000	
20.000000	
13.000000	
18.000000	
9.000000	
12.000000	
18.000000	
17.000000	
13.000000	
20.000000	
19.000000	
16.000000	
11.000000	
14.000000	
16.000000	
21.000000	
12.000000	
18.000000	
18.000000	
16.000000	
17.000000	
18.000000	
15.000000	
19.000000	
15.000000	
14.000000	
25.000000	
22.000000	
17.000000	
16.000000	
15.000000	
14.000000	
12.000000	
17.000000	
18.000000	
16.000000	
13.000000	
19.000000	
19.000000	
23.000000	
30.000000	
24.000000	
15.000000	
22.000000	
33.000000	
22.000000	
21.000000	
24.000000	
28.000000	
22.000000	
24.000000	
30.000000	
32.000000	
33.000000	
36.000000	
44.000000	
46.000000	
53.000000	
56.000000	
55.000000	
51.000000	
57.000000	
73.000000	
58.000000	
75.000000	
69.000000	
80.000000	
87.000000	
97.000000	
153.000000	
155.000000	
265.000000	
355.000000	
504.000000	
759.000000	
1207.000000	
1556.000000	
1868.000000	
1987.000000	
1646.000000	
1255.000000	
849.000000	
547.000000	
383.000000	
286.000000	
202.000000	
179.000000	
145.000000	
127.000000	
108.000000	
68.000000	
69.000000	
43.000000	
47.000000	
39.000000	
37.000000	
21.000000	
28.000000	
24.000000	
18.000000	
24.000000	
24.000000	
21.000000	
22.000000	
19.000000	
14.000000	
23.000000	
18.000000	
17.000000	
21.000000	
18.000000	
14.000000	
17.000000	
26.000000	
19.000000	
13.000000	
17.000000	
16.000000	
12.000000	
14.000000	
14.000000	
12.000000	
20.000000	
14.000000	
18.000000	
13.000000	
6.000000	
8.000000	
12.000000	
10.000000	
15.000000	
14.000000	
8.000000	
15.000000	
15.000000	
14.000000	
14.000000	
13.000000	
14.000000	
10.000000	
15.000000	
19.000000	
16.000000	
12.000000	
12.000000	
10.000000	
10.000000	
18.000000	
13.000000	
14.000000	
10.000000	
17.000000	
15.000000	
12.000000	
19.000000	
15.000000	
12.000000	
7.000000	
8.000000	
14.000000	
12.000000	
11.000000	
15.000000	
8.000000	
12.000000	
15.000000	
7.000000	
15.000000	
13.000000	
8.000000	
14.000000	
15.000000	
14.000000	
11.000000	
17.000000	
10.000000	
11.000000	
11.000000	
15.000000	
14.000000	
18.000000	
11.000000	
10.000000	
10.000000	
11.000000	
12.000000	
6.000000	
10.000000	
5.000000	
8.000000	
10.000000	
14.000000	
14.000000	
17.000000	
11.000000	
14.000000	
5.000000	
8.000000	
17.000000	
12.000000	
15.000000	
7.000000	
8.000000	
10.000000	
25.000000	
10.000000	
12.000000	
10.000000	
10.000000	
14.000000	
15.000000	
11.000000	
8.000000	
12.000000	
10.000000	
13.000000	
11.000000	
13.000000	
18.000000	
19.000000	
11.000000	
17.000000	
19.000000	
12.000000	
20.000000	
23.000000	
23.000000	
31.000000	
35.000000	
27.000000	
36.000000	
45.000000	
34.000000	
43.000000	
44.000000	
59.000000	
68.000000	
105.000000	
148.000000	
210.000000	
298.000000	
418.000000	
537.000000	
601.000000	
624.000000	
481.000000	
360.000000	
264.000000	
173.000000	
138.000000	
96.000000	
89.000000	
63.000000	
65.000000	
42.000000	
42.000000	
36.000000	
27.000000	
30.000000	
25.000000	
23.000000	
21.000000	
17.000000	
14.000000	
20.000000	
19.000000	
12.000000	
15.000000	
18.000000	
18.000000	
13.000000	
12.000000	
15.000000	
9.000000	
13.000000	
8.000000	
16.000000	
9.000000	
19.000000	
9.000000	
21.000000	
15.000000	
7.000000	
12.000000	
6.000000	
9.000000	
16.000000	
9.000000	
14.000000	
4.000000	
10.000000	
11.000000	
17.000000	
13.000000	
11.000000	
11.000000	
10.000000	
13.000000	
10.000000	
11.000000	
18.000000	
12.000000	
16.000000	
15.000000	
9.000000	
17.000000	
7.000000	
10.000000	
8.000000	
5.000000	
8.000000	
11.000000	
8.000000	
9.000000	
8.000000	
11.000000	
16.000000	
11.000000	
13.000000	
11.000000	
17.000000	
13.000000	
11.000000	
12.000000	
11.000000	
11.000000	
14.000000	
6.000000	
10.000000	
12.000000	
12.000000	
11.000000	
15.000000	
3.000000	
10.000000	
7.000000	
8.000000	
10.000000	
6.000000	
14.000000	
9.000000	
13.000000	
7.000000	
6.000000	
8.000000	
9.000000	
9.000000	
13.000000	
8.000000	
14.000000	
4.000000	
10.000000	
12.000000	
9.000000	
13.000000	
14.000000	
7.000000	
10.000000	
12.000000	
8.000000	
14.000000	
10.000000	
9.000000	
9.000000	
10.000000	
6.000000	
10.000000	
10.000000	
7.000000	
8.000000	
11.000000	
13.000000	
6.000000	
14.000000	
7.000000	
16.000000	
15.000000	
4.000000	
15.000000	
14.000000	
7.000000	
7.000000	
12.000000	
10.000000	
7.000000	
9.000000	
18.000000	
11.000000	
7.000000	
11.000000	
7.000000	
12.000000	
13.000000	
12.000000	
8.000000	
8.000000	
7.000000	
8.000000	
4.000000	
17.000000	
10.000000	
12.000000	
14.000000	
6.000000	
12.000000	
5.000000	
6.000000	
9.000000	
15.000000	
9.000000	
10.000000	
17.000000	
15.000000	
9.000000	
13.000000	
8.000000	
9.000000	
14.000000	
11.000000	
14.000000	
8.000000	
9.000000	
10.000000	
11.000000	
9.000000	
6.000000	
7.000000	
13.000000	
12.000000	
9.000000	
8.000000	
14.000000	
11.000000	
11.000000	
12.000000	
5.000000	
11.000000	
8.000000	
5.000000	
12.000000	
13.000000	
14.000000	
9.000000	
4.000000	
7.000000	
14.000000	
12.000000	
17.000000	
7.000000	
9.000000	
6.000000	
10.000000	
10.000000	
3.000000	
6.000000	
12.000000	
8.000000	
13.000000	
13.000000	
8.000000	
10.000000	
6.000000	
6.000000	
8.000000	
9.000000	
6.000000	
5.000000	
8.000000	
11.000000	
5.000000	
14.000000	
10.000000	
7.000000	
11.000000	
8.000000	
7.000000	
10.000000	
12.000000	
7.000000	
8.000000	
9.000000	
8.000000	
13.000000	
15.000000	
12.000000	
12.000000	
9.000000	
16.000000	
12.000000	
7.000000	
12.000000	
8.000000	
12.000000	
8.000000	
15.000000	
11.000000	
11.000000	
7.000000	
15.000000	
13.000000	
9.000000	
9.000000	
7.000000	
8.000000	
11.000000	
11.000000	
10.000000	
9.000000	
13.000000	
12.000000	
15.000000	
13.000000	
16.000000	
16.000000	
13.000000	
16.000000	
11.000000	
8.000000	
12.000000	
12.000000	
11.000000	
16.000000	
4.000000	
8.000000	
10.000000	
11.000000	
12.000000	
7.000000	
11.000000	
13.000000	
8.000000	
6.000000	
7.000000	
9.000000	
7.000000	
6.000000	
2.000000	
10.000000	
6.000000	
7.000000	
12.000000	
9.000000	
12.000000	
4.000000	
6.000000	
8.000000	
12.000000	
4.000000	
14.000000	
6.000000	
8.000000	
9.000000	
7.000000	
7.000000	
14.000000	
14.000000	
4.000000	
15.000000	
9.000000	
10.000000	
8.000000	
9.000000	
6.000000	
11.000000	
10.000000	
6.000000	
8.000000	
10.000000	
6.000000	
12.000000	
8.000000	
10.000000	
14.000000	
11.000000	
11.000000	
5.000000	
7.000000	
9.000000	
14.000000	
14.000000	
7.000000	
7.000000	
16.000000	
10.000000	
8.000000	
11.000000	
12.000000	
7.000000	
8.000000	
7.000000	
15.000000	
10.000000	
16.000000	
8.000000	
10.000000	
11.000000	
10.000000	
9.000000	
8.000000	
11.000000	
7.000000	
13.000000	
5.000000	
13.000000	
10.000000	
11.000000	
12.000000	
6.000000	
12.000000	
13.000000	
10.000000	
11.000000	
10.000000	
17.000000	
8.000000	
7.000000	
5.000000	
20.000000	
5.000000	
9.000000	
5.000000	
13.000000	
5.000000	
9.000000	
12.000000	
10.000000	
11.000000	
12.000000	
12.000000	
8.000000	
5.000000	
12.000000	
15.000000	
9.000000	
12.000000	
10.000000	
10.000000	
13.000000	
13.000000	
12.000000	
5.000000	
11.000000	
14.000000	
17.000000	
17.000000	
20.000000	
8.000000	
18.000000	
14.000000	
11.000000	
13.000000	
18.000000	
15.000000	
20.000000	
22.000000	
29.000000	
30.000000	
27.000000	
29.000000	
36.000000	
40.000000	
59.000000	
79.000000	
102.000000	
137.000000	
168.000000	
222.000000	
248.000000	
289.000000	
195.000000	
180.000000	
155.000000	
102.000000	
79.000000	
50.000000	
46.000000	
34.000000	
22.000000	
33.000000	
26.000000	
26.000000	
14.000000	
24.000000	
15.000000	
13.000000	
15.000000	
15.000000	
10.000000	
17.000000	
13.000000	
13.000000	
15.000000	
18.000000	
10.000000	
16.000000	
10.000000	
15.000000	
8.000000	
15.000000	
6.000000	
21.000000	
24.000000	
14.000000	
18.000000	
23.000000	
30.000000	
32.000000	
23.000000	
29.000000	
36.000000	
34.000000	
41.000000	
53.000000	
79.000000	
94.000000	
134.000000	
167.000000	
236.000000	
301.000000	
299.000000	
298.000000	
246.000000	
216.000000	
165.000000	
96.000000	
76.000000	
81.000000	
43.000000	
50.000000	
36.000000	
33.000000	
41.000000	
26.000000	
16.000000	
18.000000	
18.000000	
17.000000	
15.000000	
13.000000	
13.000000	
12.000000	
16.000000	
13.000000	
15.000000	
12.000000	
7.000000	
16.000000	
14.000000	
14.000000	
11.000000	
12.000000	
13.000000	
6.000000	
6.000000	
6.000000	
11.000000	
11.000000	
12.000000	
10.000000	
10.000000	
13.000000	
14.000000	
12.000000	
11.000000	
11.000000	
10.000000	
7.000000	
8.000000	
7.000000	
6.000000	
10.000000	
11.000000	
10.000000	
14.000000	
10.000000	
7.000000	
8.000000	
15.000000	
8.000000	
11.000000	
10.000000	
9.000000	
9.000000	
9.000000	
4.000000	
8.000000	
7.000000	
11.000000	
6.000000	
4.000000	
8.000000	
10.000000	
13.000000	
5.000000	
11.000000	
9.000000	
7.000000	
5.000000	
9.000000	
5.000000	
6.000000	
7.000000	
4.000000	
14.000000	
9.000000	
3.000000	
10.000000	
8.000000	
11.000000	
10.000000	
12.000000	
11.000000	
5.000000	
9.000000	
9.000000	
6.000000	
11.000000	
12.000000	
8.000000	
10.000000	
16.000000	
13.000000	
13.000000	
11.000000	
8.000000	
8.000000	
8.000000	
5.000000	
9.000000	
8.000000	
4.000000	
8.000000	
12.000000	
10.000000	
12.000000	
6.000000	
10.000000	
10.000000	
9.000000	
6.000000	
9.000000	
6.000000	
12.000000	
8.000000	
6.000000	
8.000000	
12.000000	
10.000000	
15.000000	
16.000000	
10.000000	
8.000000	
6.000000	
6.000000	
3.000000	
16.000000	
10.000000	
6.000000	
10.000000	
9.000000	
5.000000	
13.000000	
15.000000	
14.000000	
8.000000	
11.000000	
9.000000	
11.000000	
10.000000	
10.000000	
11.000000	
13.000000	
10.000000	
14.000000	
6.000000	
5.000000	
16.000000	
9.000000	
10.000000	
8.000000	
7.000000	
12.000000	
13.000000	
14.000000	
11.000000	
7.000000	
5.000000	
9.000000	
8.000000	
8.000000	
17.000000	
8.000000	
11.000000	
12.000000	
16.000000	
6.000000	
10.000000	
11.000000	
17.000000	
9.000000	
10.000000	
12.000000	
12.000000	
26.000000	
16.000000	
26.000000	
15.000000	
23.000000	
20.000000	
21.000000	
13.000000	
27.000000	
23.000000	
31.000000	
