;content of C:\DATA XRD\IMS_LMFO_220510_B4_140.raw - (Diffrac Plus V4 file)
_FILEVERSION = 3
_SAMPLE = IMS_LMFO_220510_B4_140
_+SAMPLE
_USER = Lab Manager
_GONIOMETER_CODE = 20
_STAGE_CODE = 7
; Goniometer : D8 theta/2theta, stage : Chi drive
_SAMPLE_CHANGER_CODE = 0
_ATTACHMENTS_CODE = 0
_GONIOMETER_RADIUS = 217.5
_FIXED_DIVSLIT = 2
_MONOCHROMATOR = 0
; Incident beam monochromator : None
_SOLLER_SLITS_2 = 2
_BETA_FILTER = N
_ANALYZER_CODE = 0
; Received beam analyzer : None
_DATEMEASURED = 17-May-2022 08:28:03
_RUNTIME = 1825.401
_WL_UNIT = A
_WL1 = 1.5406
_WL2 = 1.54439
_WL3 = 1.39222
_WLRATIO = 0.5
_ANODE = Cu
_V4_INF_USER = Lab Manager
_V4_INF_SAMPLEID = IMS_LMFO_220510_B4_140
_V4_INF_CREATOR = BrmlToV4Converter
_V4_INF_CREATOR_VERSION = 7.5.0.0

; Data for range 1
_DRIVE = COUPLED
_STEPTIME = 86.4
_STEPSIZE = 0.01973
_STEPMODE = C
_START = 5
_THETA = 2.5
_2THETA = 5
_PHI = 179.609375
_DETECTORSLIT = out
_TIMESTARTED = 0
_ROTATION_SPEED = 15
_KV = 40
_MA = 40
_RANGE_WL = 1.5406
_3DPLANE = 0
_V4_PSD2THETA = 9999
_V4_PSDCHANNEL1 = 0
_V4_PSDAPERTURE = 3.788144
_V4_PSDTYPE = 5
_V4_PSDFIXED = 0
_V4_COUNTERS_MASK = 1
_V4_DRIVES_MASK = 0
_V4_ENCODERS_MASK = 0
_COUNTS = 1
; Cnt2_D1	
304.000000	
298.000000	
316.000000	
309.000000	
294.000000	
293.000000	
300.000000	
320.000000	
294.000000	
314.000000	
294.000000	
326.000000	
308.000000	
291.000000	
306.000000	
329.000000	
301.000000	
335.000000	
275.000000	
310.000000	
293.000000	
301.000000	
286.000000	
279.000000	
272.000000	
293.000000	
266.000000	
306.000000	
274.000000	
289.000000	
282.000000	
280.000000	
297.000000	
289.000000	
244.000000	
271.000000	
297.000000	
325.000000	
245.000000	
271.000000	
250.000000	
238.000000	
246.000000	
280.000000	
225.000000	
247.000000	
263.000000	
239.000000	
275.000000	
239.000000	
264.000000	
260.000000	
239.000000	
247.000000	
261.000000	
253.000000	
232.000000	
247.000000	
274.000000	
258.000000	
269.000000	
240.000000	
277.000000	
269.000000	
231.000000	
232.000000	
238.000000	
268.000000	
228.000000	
256.000000	
253.000000	
247.000000	
275.000000	
241.000000	
224.000000	
226.000000	
241.000000	
235.000000	
199.000000	
214.000000	
242.000000	
227.000000	
217.000000	
196.000000	
221.000000	
205.000000	
217.000000	
215.000000	
218.000000	
211.000000	
216.000000	
213.000000	
207.000000	
202.000000	
246.000000	
207.000000	
221.000000	
212.000000	
208.000000	
234.000000	
228.000000	
216.000000	
206.000000	
216.000000	
201.000000	
195.000000	
199.000000	
213.000000	
195.000000	
195.000000	
204.000000	
173.000000	
182.000000	
194.000000	
199.000000	
201.000000	
212.000000	
209.000000	
211.000000	
205.000000	
206.000000	
186.000000	
184.000000	
179.000000	
173.000000	
174.000000	
171.000000	
151.000000	
203.000000	
185.000000	
188.000000	
201.000000	
182.000000	
182.000000	
183.000000	
187.000000	
170.000000	
170.000000	
190.000000	
167.000000	
173.000000	
166.000000	
174.000000	
151.000000	
197.000000	
182.000000	
164.000000	
188.000000	
185.000000	
189.000000	
155.000000	
155.000000	
177.000000	
182.000000	
152.000000	
169.000000	
185.000000	
144.000000	
143.000000	
145.000000	
166.000000	
148.000000	
147.000000	
169.000000	
168.000000	
169.000000	
182.000000	
137.000000	
142.000000	
145.000000	
150.000000	
138.000000	
124.000000	
148.000000	
156.000000	
134.000000	
144.000000	
142.000000	
147.000000	
145.000000	
136.000000	
149.000000	
153.000000	
122.000000	
152.000000	
144.000000	
149.000000	
149.000000	
115.000000	
127.000000	
147.000000	
153.000000	
130.000000	
138.000000	
127.000000	
149.000000	
151.000000	
130.000000	
135.000000	
128.000000	
146.000000	
113.000000	
122.000000	
118.000000	
137.000000	
130.000000	
130.000000	
138.000000	
123.000000	
125.000000	
136.000000	
142.000000	
133.000000	
136.000000	
130.000000	
132.000000	
131.000000	
126.000000	
110.000000	
111.000000	
121.000000	
128.000000	
133.000000	
112.000000	
131.000000	
121.000000	
127.000000	
128.000000	
116.000000	
97.000000	
128.000000	
119.000000	
109.000000	
118.000000	
120.000000	
100.000000	
127.000000	
108.000000	
96.000000	
122.000000	
107.000000	
102.000000	
135.000000	
118.000000	
134.000000	
106.000000	
135.000000	
115.000000	
108.000000	
101.000000	
99.000000	
130.000000	
113.000000	
102.000000	
110.000000	
104.000000	
115.000000	
122.000000	
116.000000	
122.000000	
113.000000	
109.000000	
113.000000	
98.000000	
112.000000	
113.000000	
89.000000	
114.000000	
120.000000	
91.000000	
108.000000	
102.000000	
98.000000	
107.000000	
107.000000	
116.000000	
119.000000	
109.000000	
115.000000	
101.000000	
118.000000	
84.000000	
92.000000	
95.000000	
113.000000	
96.000000	
100.000000	
113.000000	
95.000000	
94.000000	
91.000000	
116.000000	
102.000000	
96.000000	
93.000000	
82.000000	
106.000000	
99.000000	
102.000000	
104.000000	
85.000000	
102.000000	
97.000000	
99.000000	
104.000000	
96.000000	
107.000000	
97.000000	
109.000000	
108.000000	
88.000000	
86.000000	
91.000000	
88.000000	
126.000000	
92.000000	
114.000000	
103.000000	
105.000000	
102.000000	
81.000000	
114.000000	
99.000000	
85.000000	
91.000000	
96.000000	
99.000000	
85.000000	
98.000000	
111.000000	
86.000000	
101.000000	
82.000000	
79.000000	
100.000000	
80.000000	
84.000000	
68.000000	
89.000000	
93.000000	
107.000000	
83.000000	
105.000000	
79.000000	
91.000000	
98.000000	
100.000000	
77.000000	
77.000000	
101.000000	
72.000000	
79.000000	
83.000000	
71.000000	
98.000000	
78.000000	
80.000000	
92.000000	
83.000000	
92.000000	
72.000000	
83.000000	
93.000000	
68.000000	
77.000000	
92.000000	
108.000000	
81.000000	
83.000000	
97.000000	
93.000000	
116.000000	
69.000000	
69.000000	
66.000000	
80.000000	
80.000000	
76.000000	
85.000000	
73.000000	
63.000000	
75.000000	
78.000000	
75.000000	
103.000000	
99.000000	
82.000000	
90.000000	
96.000000	
86.000000	
83.000000	
66.000000	
74.000000	
76.000000	
78.000000	
95.000000	
63.000000	
79.000000	
78.000000	
79.000000	
81.000000	
84.000000	
65.000000	
84.000000	
86.000000	
72.000000	
73.000000	
63.000000	
74.000000	
89.000000	
75.000000	
76.000000	
77.000000	
77.000000	
86.000000	
78.000000	
74.000000	
62.000000	
77.000000	
73.000000	
70.000000	
72.000000	
76.000000	
98.000000	
61.000000	
69.000000	
71.000000	
94.000000	
76.000000	
71.000000	
85.000000	
71.000000	
80.000000	
77.000000	
65.000000	
65.000000	
71.000000	
67.000000	
80.000000	
71.000000	
67.000000	
62.000000	
67.000000	
59.000000	
78.000000	
87.000000	
92.000000	
76.000000	
64.000000	
69.000000	
73.000000	
56.000000	
62.000000	
74.000000	
65.000000	
68.000000	
74.000000	
72.000000	
63.000000	
52.000000	
59.000000	
65.000000	
68.000000	
75.000000	
60.000000	
67.000000	
73.000000	
56.000000	
64.000000	
56.000000	
59.000000	
74.000000	
78.000000	
75.000000	
63.000000	
70.000000	
55.000000	
70.000000	
58.000000	
73.000000	
63.000000	
69.000000	
59.000000	
86.000000	
62.000000	
61.000000	
49.000000	
59.000000	
68.000000	
70.000000	
59.000000	
76.000000	
66.000000	
69.000000	
51.000000	
55.000000	
52.000000	
64.000000	
54.000000	
63.000000	
63.000000	
54.000000	
76.000000	
56.000000	
75.000000	
55.000000	
63.000000	
57.000000	
63.000000	
71.000000	
59.000000	
59.000000	
56.000000	
69.000000	
55.000000	
57.000000	
64.000000	
55.000000	
68.000000	
49.000000	
76.000000	
67.000000	
49.000000	
58.000000	
59.000000	
66.000000	
63.000000	
61.000000	
51.000000	
56.000000	
54.000000	
57.000000	
57.000000	
56.000000	
47.000000	
68.000000	
53.000000	
54.000000	
59.000000	
59.000000	
50.000000	
64.000000	
61.000000	
60.000000	
54.000000	
62.000000	
53.000000	
61.000000	
58.000000	
64.000000	
56.000000	
64.000000	
58.000000	
53.000000	
54.000000	
67.000000	
59.000000	
47.000000	
55.000000	
64.000000	
44.000000	
54.000000	
62.000000	
63.000000	
62.000000	
59.000000	
58.000000	
50.000000	
54.000000	
51.000000	
65.000000	
59.000000	
50.000000	
65.000000	
56.000000	
49.000000	
57.000000	
56.000000	
56.000000	
51.000000	
57.000000	
40.000000	
54.000000	
61.000000	
66.000000	
47.000000	
46.000000	
59.000000	
52.000000	
47.000000	
48.000000	
50.000000	
57.000000	
52.000000	
50.000000	
56.000000	
57.000000	
59.000000	
64.000000	
62.000000	
54.000000	
42.000000	
65.000000	
50.000000	
57.000000	
54.000000	
56.000000	
49.000000	
57.000000	
54.000000	
55.000000	
54.000000	
52.000000	
62.000000	
48.000000	
45.000000	
51.000000	
52.000000	
52.000000	
52.000000	
56.000000	
48.000000	
59.000000	
47.000000	
50.000000	
39.000000	
40.000000	
47.000000	
42.000000	
41.000000	
42.000000	
56.000000	
59.000000	
61.000000	
48.000000	
58.000000	
58.000000	
53.000000	
58.000000	
45.000000	
54.000000	
44.000000	
41.000000	
46.000000	
51.000000	
56.000000	
43.000000	
40.000000	
41.000000	
50.000000	
54.000000	
45.000000	
38.000000	
44.000000	
42.000000	
63.000000	
64.000000	
53.000000	
58.000000	
57.000000	
53.000000	
65.000000	
59.000000	
73.000000	
81.000000	
79.000000	
96.000000	
91.000000	
99.000000	
102.000000	
104.000000	
136.000000	
130.000000	
122.000000	
122.000000	
152.000000	
158.000000	
139.000000	
161.000000	
134.000000	
180.000000	
212.000000	
342.000000	
623.000000	
1281.000000	
2497.000000	
4542.000000	
6294.000000	
6451.000000	
4362.000000	
2245.000000	
997.000000	
451.000000	
291.000000	
205.000000	
142.000000	
123.000000	
105.000000	
79.000000	
85.000000	
76.000000	
75.000000	
67.000000	
55.000000	
54.000000	
69.000000	
48.000000	
50.000000	
62.000000	
54.000000	
57.000000	
58.000000	
59.000000	
48.000000	
57.000000	
52.000000	
47.000000	
52.000000	
43.000000	
50.000000	
50.000000	
44.000000	
38.000000	
41.000000	
47.000000	
30.000000	
54.000000	
48.000000	
56.000000	
47.000000	
57.000000	
39.000000	
34.000000	
43.000000	
46.000000	
43.000000	
52.000000	
51.000000	
47.000000	
52.000000	
45.000000	
53.000000	
37.000000	
45.000000	
45.000000	
45.000000	
45.000000	
40.000000	
53.000000	
49.000000	
57.000000	
42.000000	
40.000000	
27.000000	
44.000000	
37.000000	
43.000000	
42.000000	
46.000000	
39.000000	
47.000000	
36.000000	
51.000000	
48.000000	
40.000000	
43.000000	
46.000000	
47.000000	
41.000000	
40.000000	
47.000000	
36.000000	
44.000000	
36.000000	
53.000000	
42.000000	
45.000000	
36.000000	
39.000000	
45.000000	
45.000000	
33.000000	
48.000000	
33.000000	
34.000000	
35.000000	
31.000000	
41.000000	
34.000000	
37.000000	
47.000000	
54.000000	
35.000000	
34.000000	
36.000000	
52.000000	
55.000000	
51.000000	
45.000000	
54.000000	
41.000000	
40.000000	
44.000000	
33.000000	
44.000000	
32.000000	
35.000000	
42.000000	
45.000000	
47.000000	
38.000000	
49.000000	
39.000000	
41.000000	
39.000000	
39.000000	
31.000000	
39.000000	
42.000000	
40.000000	
44.000000	
46.000000	
42.000000	
38.000000	
37.000000	
38.000000	
43.000000	
33.000000	
32.000000	
46.000000	
36.000000	
38.000000	
39.000000	
29.000000	
32.000000	
43.000000	
40.000000	
43.000000	
34.000000	
47.000000	
33.000000	
37.000000	
43.000000	
33.000000	
35.000000	
38.000000	
47.000000	
34.000000	
31.000000	
39.000000	
30.000000	
49.000000	
29.000000	
38.000000	
43.000000	
31.000000	
38.000000	
29.000000	
32.000000	
42.000000	
35.000000	
38.000000	
33.000000	
35.000000	
36.000000	
46.000000	
35.000000	
38.000000	
34.000000	
37.000000	
37.000000	
39.000000	
36.000000	
38.000000	
39.000000	
36.000000	
48.000000	
33.000000	
37.000000	
39.000000	
38.000000	
36.000000	
32.000000	
40.000000	
36.000000	
36.000000	
33.000000	
40.000000	
38.000000	
36.000000	
41.000000	
48.000000	
35.000000	
40.000000	
39.000000	
35.000000	
32.000000	
38.000000	
31.000000	
38.000000	
31.000000	
23.000000	
35.000000	
47.000000	
45.000000	
44.000000	
30.000000	
38.000000	
39.000000	
38.000000	
36.000000	
31.000000	
44.000000	
38.000000	
27.000000	
30.000000	
50.000000	
38.000000	
35.000000	
35.000000	
33.000000	
30.000000	
35.000000	
33.000000	
41.000000	
45.000000	
47.000000	
38.000000	
38.000000	
31.000000	
29.000000	
41.000000	
22.000000	
29.000000	
43.000000	
32.000000	
25.000000	
40.000000	
36.000000	
44.000000	
25.000000	
34.000000	
35.000000	
23.000000	
29.000000	
24.000000	
24.000000	
34.000000	
27.000000	
36.000000	
27.000000	
44.000000	
27.000000	
23.000000	
40.000000	
49.000000	
29.000000	
34.000000	
33.000000	
34.000000	
26.000000	
38.000000	
36.000000	
29.000000	
30.000000	
29.000000	
35.000000	
33.000000	
30.000000	
27.000000	
36.000000	
39.000000	
35.000000	
31.000000	
32.000000	
29.000000	
28.000000	
27.000000	
42.000000	
28.000000	
31.000000	
32.000000	
36.000000	
39.000000	
45.000000	
43.000000	
39.000000	
32.000000	
41.000000	
39.000000	
29.000000	
38.000000	
43.000000	
46.000000	
38.000000	
42.000000	
36.000000	
31.000000	
33.000000	
28.000000	
23.000000	
33.000000	
34.000000	
28.000000	
26.000000	
33.000000	
36.000000	
33.000000	
35.000000	
34.000000	
28.000000	
29.000000	
44.000000	
33.000000	
30.000000	
42.000000	
42.000000	
39.000000	
39.000000	
34.000000	
28.000000	
40.000000	
29.000000	
24.000000	
37.000000	
43.000000	
38.000000	
32.000000	
39.000000	
28.000000	
38.000000	
44.000000	
35.000000	
42.000000	
37.000000	
34.000000	
23.000000	
33.000000	
41.000000	
23.000000	
32.000000	
29.000000	
38.000000	
47.000000	
28.000000	
25.000000	
46.000000	
45.000000	
28.000000	
44.000000	
37.000000	
33.000000	
34.000000	
25.000000	
36.000000	
31.000000	
39.000000	
30.000000	
45.000000	
32.000000	
35.000000	
39.000000	
24.000000	
36.000000	
29.000000	
26.000000	
42.000000	
34.000000	
27.000000	
40.000000	
37.000000	
40.000000	
35.000000	
37.000000	
30.000000	
46.000000	
46.000000	
28.000000	
41.000000	
30.000000	
35.000000	
42.000000	
37.000000	
41.000000	
44.000000	
31.000000	
39.000000	
32.000000	
40.000000	
33.000000	
31.000000	
33.000000	
31.000000	
26.000000	
29.000000	
31.000000	
30.000000	
40.000000	
31.000000	
36.000000	
39.000000	
46.000000	
45.000000	
30.000000	
45.000000	
46.000000	
37.000000	
35.000000	
46.000000	
33.000000	
33.000000	
39.000000	
34.000000	
37.000000	
33.000000	
34.000000	
38.000000	
39.000000	
35.000000	
40.000000	
42.000000	
41.000000	
42.000000	
45.000000	
44.000000	
40.000000	
33.000000	
37.000000	
40.000000	
39.000000	
36.000000	
50.000000	
41.000000	
36.000000	
38.000000	
43.000000	
35.000000	
37.000000	
52.000000	
49.000000	
43.000000	
37.000000	
37.000000	
36.000000	
38.000000	
44.000000	
41.000000	
40.000000	
39.000000	
49.000000	
39.000000	
46.000000	
43.000000	
40.000000	
38.000000	
32.000000	
39.000000	
58.000000	
46.000000	
47.000000	
47.000000	
39.000000	
29.000000	
43.000000	
27.000000	
41.000000	
42.000000	
38.000000	
44.000000	
38.000000	
36.000000	
34.000000	
37.000000	
34.000000	
31.000000	
40.000000	
44.000000	
39.000000	
45.000000	
40.000000	
41.000000	
39.000000	
37.000000	
39.000000	
38.000000	
46.000000	
30.000000	
39.000000	
51.000000	
46.000000	
36.000000	
38.000000	
29.000000	
43.000000	
49.000000	
38.000000	
37.000000	
40.000000	
47.000000	
36.000000	
42.000000	
43.000000	
53.000000	
44.000000	
51.000000	
38.000000	
50.000000	
42.000000	
48.000000	
54.000000	
47.000000	
43.000000	
47.000000	
44.000000	
45.000000	
33.000000	
40.000000	
51.000000	
51.000000	
39.000000	
54.000000	
48.000000	
45.000000	
38.000000	
42.000000	
52.000000	
39.000000	
41.000000	
58.000000	
36.000000	
46.000000	
44.000000	
50.000000	
46.000000	
45.000000	
51.000000	
46.000000	
47.000000	
38.000000	
51.000000	
60.000000	
52.000000	
47.000000	
47.000000	
65.000000	
50.000000	
44.000000	
41.000000	
39.000000	
50.000000	
50.000000	
52.000000	
49.000000	
47.000000	
39.000000	
53.000000	
44.000000	
42.000000	
44.000000	
51.000000	
56.000000	
35.000000	
44.000000	
48.000000	
50.000000	
35.000000	
42.000000	
53.000000	
44.000000	
43.000000	
60.000000	
42.000000	
41.000000	
35.000000	
50.000000	
62.000000	
49.000000	
54.000000	
43.000000	
55.000000	
48.000000	
44.000000	
50.000000	
44.000000	
52.000000	
42.000000	
43.000000	
62.000000	
74.000000	
87.000000	
104.000000	
174.000000	
207.000000	
205.000000	
148.000000	
119.000000	
80.000000	
62.000000	
52.000000	
48.000000	
52.000000	
50.000000	
42.000000	
50.000000	
30.000000	
42.000000	
42.000000	
50.000000	
47.000000	
47.000000	
41.000000	
40.000000	
48.000000	
52.000000	
40.000000	
45.000000	
42.000000	
44.000000	
37.000000	
51.000000	
38.000000	
35.000000	
42.000000	
42.000000	
48.000000	
50.000000	
47.000000	
50.000000	
43.000000	
45.000000	
58.000000	
44.000000	
38.000000	
45.000000	
58.000000	
32.000000	
39.000000	
39.000000	
43.000000	
47.000000	
52.000000	
47.000000	
42.000000	
63.000000	
47.000000	
42.000000	
39.000000	
46.000000	
41.000000	
38.000000	
52.000000	
48.000000	
53.000000	
34.000000	
48.000000	
46.000000	
51.000000	
47.000000	
37.000000	
48.000000	
46.000000	
39.000000	
41.000000	
52.000000	
42.000000	
45.000000	
47.000000	
41.000000	
33.000000	
36.000000	
37.000000	
44.000000	
53.000000	
45.000000	
45.000000	
39.000000	
46.000000	
43.000000	
46.000000	
40.000000	
50.000000	
49.000000	
47.000000	
37.000000	
34.000000	
51.000000	
60.000000	
38.000000	
35.000000	
42.000000	
43.000000	
53.000000	
50.000000	
31.000000	
37.000000	
34.000000	
47.000000	
49.000000	
45.000000	
31.000000	
41.000000	
42.000000	
39.000000	
44.000000	
43.000000	
39.000000	
37.000000	
41.000000	
42.000000	
44.000000	
36.000000	
37.000000	
44.000000	
44.000000	
36.000000	
35.000000	
36.000000	
34.000000	
47.000000	
40.000000	
30.000000	
36.000000	
48.000000	
35.000000	
39.000000	
45.000000	
51.000000	
41.000000	
32.000000	
56.000000	
43.000000	
34.000000	
43.000000	
45.000000	
42.000000	
33.000000	
43.000000	
37.000000	
51.000000	
35.000000	
38.000000	
31.000000	
50.000000	
46.000000	
32.000000	
32.000000	
45.000000	
50.000000	
38.000000	
37.000000	
42.000000	
50.000000	
63.000000	
40.000000	
44.000000	
45.000000	
43.000000	
44.000000	
39.000000	
42.000000	
47.000000	
52.000000	
35.000000	
41.000000	
35.000000	
41.000000	
41.000000	
32.000000	
29.000000	
43.000000	
47.000000	
57.000000	
43.000000	
39.000000	
41.000000	
37.000000	
45.000000	
35.000000	
29.000000	
37.000000	
44.000000	
72.000000	
49.000000	
59.000000	
51.000000	
37.000000	
49.000000	
50.000000	
39.000000	
48.000000	
48.000000	
46.000000	
43.000000	
49.000000	
52.000000	
52.000000	
54.000000	
39.000000	
48.000000	
50.000000	
46.000000	
48.000000	
41.000000	
57.000000	
50.000000	
43.000000	
61.000000	
38.000000	
50.000000	
50.000000	
42.000000	
50.000000	
46.000000	
53.000000	
48.000000	
51.000000	
51.000000	
61.000000	
47.000000	
50.000000	
51.000000	
43.000000	
50.000000	
57.000000	
47.000000	
40.000000	
46.000000	
61.000000	
55.000000	
52.000000	
53.000000	
50.000000	
55.000000	
65.000000	
63.000000	
64.000000	
68.000000	
65.000000	
74.000000	
60.000000	
85.000000	
63.000000	
76.000000	
75.000000	
66.000000	
74.000000	
87.000000	
67.000000	
104.000000	
108.000000	
106.000000	
115.000000	
98.000000	
152.000000	
109.000000	
146.000000	
129.000000	
158.000000	
119.000000	
161.000000	
184.000000	
261.000000	
359.000000	
725.000000	
1285.000000	
2300.000000	
3269.000000	
3499.000000	
3278.000000	
2446.000000	
1703.000000	
1077.000000	
659.000000	
443.000000	
289.000000	
220.000000	
162.000000	
119.000000	
110.000000	
117.000000	
95.000000	
61.000000	
71.000000	
64.000000	
65.000000	
53.000000	
47.000000	
49.000000	
47.000000	
34.000000	
40.000000	
39.000000	
39.000000	
36.000000	
39.000000	
41.000000	
46.000000	
29.000000	
30.000000	
38.000000	
51.000000	
52.000000	
43.000000	
43.000000	
37.000000	
35.000000	
38.000000	
44.000000	
44.000000	
45.000000	
45.000000	
35.000000	
45.000000	
36.000000	
38.000000	
51.000000	
51.000000	
38.000000	
43.000000	
33.000000	
43.000000	
53.000000	
47.000000	
45.000000	
40.000000	
42.000000	
40.000000	
50.000000	
46.000000	
59.000000	
47.000000	
47.000000	
44.000000	
52.000000	
45.000000	
72.000000	
49.000000	
64.000000	
73.000000	
64.000000	
58.000000	
61.000000	
49.000000	
42.000000	
59.000000	
60.000000	
117.000000	
180.000000	
296.000000	
438.000000	
563.000000	
651.000000	
504.000000	
427.000000	
315.000000	
231.000000	
128.000000	
113.000000	
90.000000	
79.000000	
75.000000	
54.000000	
65.000000	
43.000000	
59.000000	
32.000000	
57.000000	
45.000000	
37.000000	
35.000000	
46.000000	
43.000000	
46.000000	
46.000000	
37.000000	
34.000000	
41.000000	
33.000000	
41.000000	
35.000000	
43.000000	
39.000000	
23.000000	
35.000000	
48.000000	
39.000000	
39.000000	
48.000000	
38.000000	
37.000000	
47.000000	
34.000000	
29.000000	
36.000000	
41.000000	
34.000000	
41.000000	
48.000000	
35.000000	
43.000000	
48.000000	
29.000000	
40.000000	
37.000000	
38.000000	
36.000000	
35.000000	
42.000000	
35.000000	
34.000000	
32.000000	
34.000000	
41.000000	
40.000000	
42.000000	
32.000000	
41.000000	
42.000000	
32.000000	
29.000000	
30.000000	
38.000000	
34.000000	
36.000000	
43.000000	
44.000000	
42.000000	
47.000000	
28.000000	
30.000000	
45.000000	
36.000000	
37.000000	
38.000000	
37.000000	
37.000000	
47.000000	
36.000000	
37.000000	
46.000000	
47.000000	
38.000000	
34.000000	
33.000000	
33.000000	
39.000000	
46.000000	
45.000000	
32.000000	
42.000000	
30.000000	
40.000000	
37.000000	
34.000000	
39.000000	
39.000000	
43.000000	
51.000000	
49.000000	
35.000000	
36.000000	
34.000000	
47.000000	
46.000000	
44.000000	
42.000000	
40.000000	
33.000000	
47.000000	
40.000000	
39.000000	
40.000000	
32.000000	
40.000000	
31.000000	
39.000000	
36.000000	
36.000000	
37.000000	
42.000000	
33.000000	
43.000000	
43.000000	
40.000000	
37.000000	
36.000000	
43.000000	
43.000000	
38.000000	
38.000000	
41.000000	
41.000000	
46.000000	
30.000000	
37.000000	
28.000000	
40.000000	
46.000000	
39.000000	
46.000000	
34.000000	
39.000000	
44.000000	
39.000000	
37.000000	
34.000000	
29.000000	
29.000000	
47.000000	
55.000000	
39.000000	
43.000000	
43.000000	
47.000000	
31.000000	
38.000000	
39.000000	
31.000000	
33.000000	
46.000000	
41.000000	
35.000000	
49.000000	
34.000000	
41.000000	
42.000000	
41.000000	
44.000000	
34.000000	
30.000000	
45.000000	
53.000000	
50.000000	
42.000000	
33.000000	
46.000000	
32.000000	
52.000000	
48.000000	
45.000000	
42.000000	
48.000000	
47.000000	
39.000000	
40.000000	
44.000000	
43.000000	
59.000000	
53.000000	
40.000000	
52.000000	
42.000000	
48.000000	
35.000000	
40.000000	
44.000000	
53.000000	
29.000000	
35.000000	
51.000000	
48.000000	
33.000000	
34.000000	
35.000000	
34.000000	
41.000000	
31.000000	
46.000000	
49.000000	
38.000000	
42.000000	
38.000000	
45.000000	
40.000000	
54.000000	
37.000000	
50.000000	
47.000000	
35.000000	
43.000000	
42.000000	
53.000000	
54.000000	
40.000000	
42.000000	
46.000000	
46.000000	
47.000000	
37.000000	
54.000000	
53.000000	
41.000000	
42.000000	
43.000000	
49.000000	
43.000000	
38.000000	
35.000000	
41.000000	
55.000000	
42.000000	
52.000000	
46.000000	
43.000000	
43.000000	
51.000000	
61.000000	
46.000000	
40.000000	
43.000000	
43.000000	
58.000000	
37.000000	
62.000000	
50.000000	
45.000000	
47.000000	
52.000000	
47.000000	
57.000000	
56.000000	
42.000000	
44.000000	
51.000000	
57.000000	
63.000000	
48.000000	
60.000000	
64.000000	
55.000000	
53.000000	
71.000000	
66.000000	
62.000000	
75.000000	
66.000000	
75.000000	
79.000000	
75.000000	
93.000000	
83.000000	
90.000000	
101.000000	
124.000000	
115.000000	
109.000000	
126.000000	
124.000000	
138.000000	
116.000000	
122.000000	
143.000000	
177.000000	
293.000000	
446.000000	
829.000000	
1514.000000	
2190.000000	
2576.000000	
2626.000000	
2439.000000	
1937.000000	
1424.000000	
1088.000000	
718.000000	
527.000000	
381.000000	
276.000000	
198.000000	
150.000000	
149.000000	
134.000000	
121.000000	
99.000000	
88.000000	
104.000000	
79.000000	
61.000000	
67.000000	
66.000000	
58.000000	
58.000000	
52.000000	
64.000000	
54.000000	
49.000000	
54.000000	
59.000000	
52.000000	
36.000000	
66.000000	
45.000000	
55.000000	
50.000000	
46.000000	
44.000000	
46.000000	
44.000000	
52.000000	
39.000000	
53.000000	
40.000000	
47.000000	
47.000000	
35.000000	
33.000000	
45.000000	
28.000000	
37.000000	
36.000000	
53.000000	
42.000000	
39.000000	
53.000000	
37.000000	
39.000000	
30.000000	
40.000000	
48.000000	
32.000000	
41.000000	
32.000000	
36.000000	
33.000000	
38.000000	
35.000000	
42.000000	
25.000000	
37.000000	
39.000000	
37.000000	
33.000000	
35.000000	
32.000000	
43.000000	
40.000000	
29.000000	
28.000000	
38.000000	
45.000000	
45.000000	
43.000000	
41.000000	
36.000000	
35.000000	
32.000000	
34.000000	
33.000000	
32.000000	
32.000000	
31.000000	
34.000000	
36.000000	
36.000000	
31.000000	
45.000000	
43.000000	
43.000000	
53.000000	
45.000000	
32.000000	
30.000000	
42.000000	
51.000000	
38.000000	
33.000000	
41.000000	
33.000000	
40.000000	
33.000000	
30.000000	
20.000000	
35.000000	
44.000000	
31.000000	
43.000000	
29.000000	
45.000000	
38.000000	
43.000000	
34.000000	
34.000000	
29.000000	
41.000000	
37.000000	
26.000000	
43.000000	
28.000000	
37.000000	
34.000000	
24.000000	
37.000000	
41.000000	
35.000000	
31.000000	
37.000000	
41.000000	
35.000000	
39.000000	
32.000000	
29.000000	
27.000000	
34.000000	
33.000000	
27.000000	
35.000000	
34.000000	
34.000000	
41.000000	
42.000000	
31.000000	
32.000000	
17.000000	
37.000000	
33.000000	
34.000000	
28.000000	
32.000000	
26.000000	
40.000000	
42.000000	
29.000000	
31.000000	
39.000000	
30.000000	
42.000000	
38.000000	
34.000000	
36.000000	
35.000000	
33.000000	
34.000000	
30.000000	
37.000000	
33.000000	
32.000000	
32.000000	
42.000000	
50.000000	
34.000000	
20.000000	
34.000000	
36.000000	
41.000000	
29.000000	
43.000000	
40.000000	
38.000000	
33.000000	
37.000000	
45.000000	
30.000000	
42.000000	
40.000000	
42.000000	
52.000000	
43.000000	
42.000000	
51.000000	
51.000000	
54.000000	
46.000000	
51.000000	
80.000000	
101.000000	
170.000000	
247.000000	
343.000000	
408.000000	
404.000000	
392.000000	
318.000000	
249.000000	
202.000000	
145.000000	
121.000000	
95.000000	
64.000000	
63.000000	
57.000000	
48.000000	
54.000000	
50.000000	
37.000000	
43.000000	
54.000000	
42.000000	
45.000000	
32.000000	
45.000000	
43.000000	
45.000000	
32.000000	
25.000000	
39.000000	
34.000000	
32.000000	
36.000000	
37.000000	
27.000000	
39.000000	
40.000000	
39.000000	
28.000000	
30.000000	
29.000000	
34.000000	
25.000000	
32.000000	
29.000000	
32.000000	
29.000000	
35.000000	
32.000000	
35.000000	
36.000000	
32.000000	
29.000000	
32.000000	
44.000000	
38.000000	
31.000000	
38.000000	
27.000000	
38.000000	
35.000000	
36.000000	
34.000000	
33.000000	
29.000000	
44.000000	
30.000000	
31.000000	
39.000000	
33.000000	
28.000000	
20.000000	
40.000000	
37.000000	
38.000000	
21.000000	
30.000000	
38.000000	
34.000000	
43.000000	
33.000000	
29.000000	
30.000000	
30.000000	
30.000000	
25.000000	
31.000000	
28.000000	
31.000000	
28.000000	
32.000000	
39.000000	
40.000000	
37.000000	
33.000000	
40.000000	
28.000000	
27.000000	
30.000000	
37.000000	
41.000000	
28.000000	
35.000000	
35.000000	
27.000000	
25.000000	
24.000000	
19.000000	
28.000000	
34.000000	
22.000000	
34.000000	
34.000000	
27.000000	
34.000000	
31.000000	
29.000000	
27.000000	
26.000000	
27.000000	
16.000000	
32.000000	
28.000000	
22.000000	
25.000000	
29.000000	
28.000000	
26.000000	
37.000000	
33.000000	
36.000000	
40.000000	
29.000000	
27.000000	
35.000000	
33.000000	
25.000000	
39.000000	
29.000000	
25.000000	
41.000000	
27.000000	
36.000000	
37.000000	
32.000000	
29.000000	
32.000000	
31.000000	
31.000000	
31.000000	
29.000000	
26.000000	
32.000000	
24.000000	
26.000000	
26.000000	
34.000000	
38.000000	
27.000000	
38.000000	
21.000000	
32.000000	
30.000000	
38.000000	
36.000000	
33.000000	
32.000000	
32.000000	
31.000000	
27.000000	
38.000000	
35.000000	
29.000000	
31.000000	
35.000000	
32.000000	
23.000000	
28.000000	
25.000000	
31.000000	
27.000000	
17.000000	
30.000000	
28.000000	
40.000000	
38.000000	
28.000000	
42.000000	
29.000000	
35.000000	
26.000000	
46.000000	
39.000000	
24.000000	
28.000000	
23.000000	
21.000000	
32.000000	
36.000000	
36.000000	
19.000000	
28.000000	
31.000000	
34.000000	
34.000000	
35.000000	
32.000000	
34.000000	
27.000000	
30.000000	
31.000000	
34.000000	
34.000000	
31.000000	
21.000000	
34.000000	
28.000000	
31.000000	
21.000000	
31.000000	
31.000000	
34.000000	
32.000000	
24.000000	
29.000000	
29.000000	
38.000000	
28.000000	
29.000000	
28.000000	
25.000000	
34.000000	
30.000000	
31.000000	
29.000000	
22.000000	
35.000000	
29.000000	
42.000000	
45.000000	
35.000000	
26.000000	
43.000000	
25.000000	
27.000000	
24.000000	
29.000000	
39.000000	
21.000000	
20.000000	
29.000000	
31.000000	
28.000000	
29.000000	
23.000000	
32.000000	
29.000000	
31.000000	
34.000000	
30.000000	
30.000000	
22.000000	
30.000000	
33.000000	
21.000000	
34.000000	
32.000000	
32.000000	
29.000000	
37.000000	
34.000000	
35.000000	
28.000000	
27.000000	
25.000000	
28.000000	
29.000000	
31.000000	
30.000000	
26.000000	
31.000000	
22.000000	
31.000000	
28.000000	
29.000000	
36.000000	
31.000000	
22.000000	
31.000000	
31.000000	
33.000000	
29.000000	
16.000000	
24.000000	
30.000000	
31.000000	
35.000000	
34.000000	
36.000000	
38.000000	
31.000000	
27.000000	
29.000000	
27.000000	
30.000000	
43.000000	
34.000000	
30.000000	
34.000000	
24.000000	
23.000000	
32.000000	
39.000000	
36.000000	
32.000000	
31.000000	
33.000000	
26.000000	
24.000000	
29.000000	
25.000000	
31.000000	
49.000000	
42.000000	
51.000000	
50.000000	
51.000000	
48.000000	
48.000000	
53.000000	
48.000000	
41.000000	
44.000000	
35.000000	
35.000000	
31.000000	
35.000000	
19.000000	
30.000000	
30.000000	
25.000000	
37.000000	
24.000000	
32.000000	
30.000000	
28.000000	
34.000000	
42.000000	
35.000000	
39.000000	
33.000000	
22.000000	
28.000000	
22.000000	
32.000000	
33.000000	
29.000000	
30.000000	
23.000000	
38.000000	
30.000000	
26.000000	
32.000000	
24.000000	
28.000000	
34.000000	
27.000000	
31.000000	
22.000000	
35.000000	
23.000000	
30.000000	
28.000000	
32.000000	
35.000000	
22.000000	
40.000000	
23.000000	
31.000000	
27.000000	
39.000000	
33.000000	
28.000000	
31.000000	
35.000000	
27.000000	
31.000000	
24.000000	
22.000000	
36.000000	
32.000000	
30.000000	
27.000000	
36.000000	
31.000000	
30.000000	
34.000000	
34.000000	
30.000000	
21.000000	
38.000000	
29.000000	
29.000000	
37.000000	
30.000000	
29.000000	
39.000000	
34.000000	
30.000000	
31.000000	
35.000000	
27.000000	
35.000000	
28.000000	
34.000000	
35.000000	
34.000000	
30.000000	
25.000000	
41.000000	
36.000000	
27.000000	
28.000000	
29.000000	
25.000000	
25.000000	
26.000000	
33.000000	
42.000000	
32.000000	
29.000000	
37.000000	
29.000000	
27.000000	
31.000000	
39.000000	
31.000000	
33.000000	
27.000000	
25.000000	
40.000000	
41.000000	
33.000000	
33.000000	
30.000000	
31.000000	
38.000000	
28.000000	
33.000000	
36.000000	
28.000000	
35.000000	
23.000000	
34.000000	
36.000000	
29.000000	
31.000000	
32.000000	
39.000000	
31.000000	
28.000000	
32.000000	
27.000000	
26.000000	
30.000000	
32.000000	
29.000000	
34.000000	
28.000000	
42.000000	
50.000000	
34.000000	
25.000000	
38.000000	
39.000000	
41.000000	
33.000000	
35.000000	
40.000000	
40.000000	
43.000000	
34.000000	
50.000000	
37.000000	
46.000000	
51.000000	
63.000000	
64.000000	
58.000000	
58.000000	
53.000000	
58.000000	
62.000000	
74.000000	
85.000000	
70.000000	
64.000000	
66.000000	
79.000000	
101.000000	
120.000000	
150.000000	
251.000000	
363.000000	
559.000000	
751.000000	
868.000000	
961.000000	
909.000000	
825.000000	
726.000000	
535.000000	
443.000000	
366.000000	
254.000000	
213.000000	
152.000000	
119.000000	
92.000000	
94.000000	
63.000000	
83.000000	
68.000000	
66.000000	
44.000000	
49.000000	
55.000000	
38.000000	
52.000000	
39.000000	
43.000000	
35.000000	
34.000000	
44.000000	
40.000000	
25.000000	
41.000000	
43.000000	
38.000000	
24.000000	
37.000000	
39.000000	
33.000000	
51.000000	
23.000000	
41.000000	
39.000000	
28.000000	
27.000000	
33.000000	
27.000000	
29.000000	
38.000000	
24.000000	
26.000000	
38.000000	
35.000000	
27.000000	
34.000000	
25.000000	
29.000000	
31.000000	
33.000000	
31.000000	
37.000000	
32.000000	
36.000000	
28.000000	
26.000000	
27.000000	
30.000000	
40.000000	
24.000000	
34.000000	
26.000000	
28.000000	
23.000000	
22.000000	
35.000000	
21.000000	
29.000000	
23.000000	
32.000000	
27.000000	
39.000000	
32.000000	
32.000000	
32.000000	
41.000000	
33.000000	
27.000000	
31.000000	
25.000000	
21.000000	
20.000000	
22.000000	
36.000000	
28.000000	
32.000000	
31.000000	
23.000000	
27.000000	
20.000000	
18.000000	
26.000000	
26.000000	
28.000000	
35.000000	
28.000000	
27.000000	
29.000000	
27.000000	
23.000000	
26.000000	
32.000000	
28.000000	
29.000000	
33.000000	
23.000000	
33.000000	
27.000000	
31.000000	
27.000000	
30.000000	
25.000000	
27.000000	
28.000000	
22.000000	
26.000000	
22.000000	
30.000000	
35.000000	
30.000000	
34.000000	
34.000000	
27.000000	
33.000000	
39.000000	
27.000000	
27.000000	
27.000000	
32.000000	
37.000000	
26.000000	
34.000000	
39.000000	
31.000000	
22.000000	
37.000000	
28.000000	
24.000000	
30.000000	
28.000000	
34.000000	
32.000000	
31.000000	
32.000000	
17.000000	
29.000000	
38.000000	
35.000000	
35.000000	
34.000000	
28.000000	
25.000000	
21.000000	
24.000000	
30.000000	
21.000000	
20.000000	
28.000000	
24.000000	
26.000000	
35.000000	
38.000000	
25.000000	
30.000000	
23.000000	
27.000000	
34.000000	
33.000000	
29.000000	
30.000000	
23.000000	
29.000000	
25.000000	
30.000000	
34.000000	
29.000000	
24.000000	
41.000000	
22.000000	
29.000000	
26.000000	
26.000000	
23.000000	
30.000000	
25.000000	
29.000000	
33.000000	
35.000000	
33.000000	
26.000000	
26.000000	
17.000000	
34.000000	
36.000000	
30.000000	
25.000000	
37.000000	
34.000000	
34.000000	
35.000000	
33.000000	
35.000000	
43.000000	
28.000000	
29.000000	
32.000000	
39.000000	
23.000000	
19.000000	
33.000000	
27.000000	
27.000000	
37.000000	
34.000000	
35.000000	
33.000000	
36.000000	
34.000000	
52.000000	
34.000000	
42.000000	
25.000000	
40.000000	
34.000000	
37.000000	
29.000000	
36.000000	
27.000000	
32.000000	
39.000000	
35.000000	
27.000000	
44.000000	
43.000000	
31.000000	
41.000000	
36.000000	
33.000000	
42.000000	
34.000000	
29.000000	
40.000000	
41.000000	
40.000000	
24.000000	
40.000000	
40.000000	
51.000000	
31.000000	
41.000000	
44.000000	
46.000000	
54.000000	
41.000000	
50.000000	
63.000000	
54.000000	
58.000000	
64.000000	
53.000000	
71.000000	
82.000000	
65.000000	
63.000000	
66.000000	
76.000000	
78.000000	
68.000000	
81.000000	
72.000000	
76.000000	
101.000000	
111.000000	
96.000000	
138.000000	
180.000000	
320.000000	
448.000000	
672.000000	
921.000000	
1101.000000	
1178.000000	
1266.000000	
1204.000000	
1053.000000	
900.000000	
769.000000	
675.000000	
510.000000	
391.000000	
337.000000	
238.000000	
223.000000	
178.000000	
135.000000	
118.000000	
97.000000	
92.000000	
74.000000	
70.000000	
58.000000	
63.000000	
56.000000	
50.000000	
42.000000	
49.000000	
36.000000	
47.000000	
42.000000	
46.000000	
45.000000	
36.000000	
35.000000	
40.000000	
33.000000	
33.000000	
33.000000	
33.000000	
39.000000	
39.000000	
41.000000	
39.000000	
19.000000	
28.000000	
34.000000	
41.000000	
25.000000	
39.000000	
28.000000	
33.000000	
32.000000	
30.000000	
24.000000	
30.000000	
33.000000	
27.000000	
25.000000	
33.000000	
39.000000	
39.000000	
32.000000	
25.000000	
28.000000	
33.000000	
29.000000	
22.000000	
30.000000	
29.000000	
21.000000	
27.000000	
20.000000	
31.000000	
32.000000	
30.000000	
25.000000	
23.000000	
39.000000	
36.000000	
27.000000	
22.000000	
35.000000	
28.000000	
27.000000	
28.000000	
26.000000	
38.000000	
23.000000	
25.000000	
27.000000	
28.000000	
23.000000	
35.000000	
20.000000	
21.000000	
20.000000	
21.000000	
23.000000	
20.000000	
22.000000	
26.000000	
28.000000	
26.000000	
21.000000	
22.000000	
31.000000	
28.000000	
23.000000	
26.000000	
23.000000	
28.000000	
26.000000	
27.000000	
32.000000	
29.000000	
35.000000	
23.000000	
32.000000	
28.000000	
22.000000	
20.000000	
24.000000	
19.000000	
24.000000	
27.000000	
26.000000	
33.000000	
22.000000	
25.000000	
18.000000	
27.000000	
30.000000	
35.000000	
36.000000	
32.000000	
35.000000	
24.000000	
27.000000	
30.000000	
33.000000	
34.000000	
28.000000	
38.000000	
31.000000	
27.000000	
29.000000	
35.000000	
46.000000	
32.000000	
42.000000	
37.000000	
49.000000	
39.000000	
41.000000	
39.000000	
42.000000	
35.000000	
58.000000	
45.000000	
53.000000	
70.000000	
68.000000	
108.000000	
144.000000	
204.000000	
242.000000	
336.000000	
386.000000	
385.000000	
395.000000	
390.000000	
365.000000	
329.000000	
277.000000	
221.000000	
162.000000	
148.000000	
123.000000	
100.000000	
81.000000	
74.000000	
57.000000	
62.000000	
63.000000	
52.000000	
47.000000	
41.000000	
34.000000	
40.000000	
39.000000	
37.000000	
30.000000	
38.000000	
33.000000	
39.000000	
25.000000	
32.000000	
17.000000	
35.000000	
29.000000	
35.000000	
32.000000	
33.000000	
36.000000	
29.000000	
19.000000	
33.000000	
27.000000	
28.000000	
26.000000	
27.000000	
31.000000	
32.000000	
27.000000	
25.000000	
30.000000	
31.000000	
29.000000	
32.000000	
26.000000	
32.000000	
31.000000	
32.000000	
27.000000	
31.000000	
37.000000	
44.000000	
33.000000	
21.000000	
24.000000	
29.000000	
27.000000	
27.000000	
28.000000	
26.000000	
27.000000	
26.000000	
22.000000	
19.000000	
20.000000	
26.000000	
17.000000	
18.000000	
22.000000	
27.000000	
19.000000	
22.000000	
27.000000	
27.000000	
24.000000	
28.000000	
27.000000	
33.000000	
21.000000	
32.000000	
16.000000	
20.000000	
22.000000	
28.000000	
25.000000	
23.000000	
20.000000	
21.000000	
26.000000	
19.000000	
35.000000	
28.000000	
20.000000	
35.000000	
33.000000	
21.000000	
20.000000	
25.000000	
22.000000	
20.000000	
32.000000	
21.000000	
26.000000	
21.000000	
29.000000	
21.000000	
33.000000	
20.000000	
22.000000	
25.000000	
23.000000	
25.000000	
19.000000	
25.000000	
17.000000	
29.000000	
16.000000	
27.000000	
23.000000	
28.000000	
18.000000	
21.000000	
21.000000	
24.000000	
31.000000	
25.000000	
28.000000	
31.000000	
19.000000	
24.000000	
25.000000	
22.000000	
22.000000	
34.000000	
17.000000	
26.000000	
19.000000	
26.000000	
20.000000	
18.000000	
33.000000	
17.000000	
24.000000	
15.000000	
28.000000	
22.000000	
22.000000	
24.000000	
30.000000	
24.000000	
22.000000	
15.000000	
20.000000	
25.000000	
32.000000	
34.000000	
20.000000	
22.000000	
24.000000	
14.000000	
21.000000	
29.000000	
34.000000	
23.000000	
24.000000	
18.000000	
17.000000	
27.000000	
22.000000	
25.000000	
27.000000	
30.000000	
22.000000	
30.000000	
23.000000	
18.000000	
21.000000	
30.000000	
34.000000	
23.000000	
28.000000	
21.000000	
20.000000	
15.000000	
22.000000	
24.000000	
26.000000	
23.000000	
29.000000	
21.000000	
28.000000	
20.000000	
18.000000	
16.000000	
28.000000	
24.000000	
20.000000	
32.000000	
25.000000	
28.000000	
27.000000	
17.000000	
22.000000	
24.000000	
17.000000	
27.000000	
33.000000	
17.000000	
19.000000	
16.000000	
28.000000	
18.000000	
24.000000	
24.000000	
15.000000	
24.000000	
29.000000	
27.000000	
25.000000	
22.000000	
23.000000	
20.000000	
25.000000	
23.000000	
23.000000	
24.000000	
25.000000	
21.000000	
25.000000	
22.000000	
23.000000	
24.000000	
18.000000	
21.000000	
27.000000	
32.000000	
19.000000	
22.000000	
20.000000	
25.000000	
26.000000	
25.000000	
26.000000	
22.000000	
20.000000	
26.000000	
32.000000	
25.000000	
26.000000	
15.000000	
26.000000	
34.000000	
15.000000	
28.000000	
21.000000	
23.000000	
24.000000	
21.000000	
19.000000	
28.000000	
33.000000	
29.000000	
21.000000	
23.000000	
27.000000	
25.000000	
29.000000	
26.000000	
22.000000	
27.000000	
29.000000	
22.000000	
19.000000	
26.000000	
19.000000	
24.000000	
27.000000	
27.000000	
20.000000	
21.000000	
19.000000	
27.000000	
26.000000	
25.000000	
24.000000	
26.000000	
26.000000	
18.000000	
30.000000	
20.000000	
25.000000	
18.000000	
27.000000	
20.000000	
38.000000	
24.000000	
23.000000	
26.000000	
22.000000	
30.000000	
35.000000	
22.000000	
21.000000	
28.000000	
16.000000	
24.000000	
25.000000	
19.000000	
23.000000	
21.000000	
23.000000	
21.000000	
22.000000	
25.000000	
23.000000	
25.000000	
21.000000	
28.000000	
32.000000	
23.000000	
21.000000	
18.000000	
25.000000	
24.000000	
26.000000	
26.000000	
20.000000	
32.000000	
20.000000	
31.000000	
22.000000	
24.000000	
21.000000	
24.000000	
25.000000	
12.000000	
19.000000	
34.000000	
18.000000	
29.000000	
24.000000	
25.000000	
33.000000	
22.000000	
22.000000	
23.000000	
25.000000	
21.000000	
21.000000	
19.000000	
22.000000	
30.000000	
25.000000	
26.000000	
24.000000	
22.000000	
32.000000	
25.000000	
34.000000	
23.000000	
28.000000	
16.000000	
28.000000	
19.000000	
25.000000	
28.000000	
26.000000	
29.000000	
26.000000	
35.000000	
21.000000	
28.000000	
25.000000	
21.000000	
24.000000	
26.000000	
29.000000	
24.000000	
17.000000	
22.000000	
29.000000	
19.000000	
22.000000	
37.000000	
27.000000	
15.000000	
28.000000	
29.000000	
25.000000	
22.000000	
28.000000	
25.000000	
26.000000	
19.000000	
31.000000	
29.000000	
34.000000	
27.000000	
23.000000	
28.000000	
38.000000	
39.000000	
33.000000	
26.000000	
34.000000	
29.000000	
30.000000	
31.000000	
38.000000	
46.000000	
66.000000	
76.000000	
92.000000	
96.000000	
134.000000	
175.000000	
183.000000	
167.000000	
166.000000	
150.000000	
153.000000	
145.000000	
137.000000	
114.000000	
103.000000	
93.000000	
86.000000	
59.000000	
60.000000	
33.000000	
49.000000	
50.000000	
41.000000	
42.000000	
37.000000	
30.000000	
40.000000	
27.000000	
26.000000	
23.000000	
38.000000	
29.000000	
31.000000	
40.000000	
34.000000	
29.000000	
28.000000	
33.000000	
40.000000	
33.000000	
32.000000	
40.000000	
33.000000	
21.000000	
25.000000	
35.000000	
40.000000	
39.000000	
39.000000	
45.000000	
40.000000	
60.000000	
76.000000	
72.000000	
102.000000	
131.000000	
178.000000	
177.000000	
201.000000	
198.000000	
213.000000	
199.000000	
183.000000	
169.000000	
124.000000	
118.000000	
118.000000	
109.000000	
92.000000	
64.000000	
48.000000	
51.000000	
53.000000	
40.000000	
43.000000	
29.000000	
41.000000	
27.000000	
24.000000	
31.000000	
24.000000	
36.000000	
29.000000	
30.000000	
24.000000	
30.000000	
22.000000	
24.000000	
19.000000	
32.000000	
22.000000	
22.000000	
31.000000	
22.000000	
31.000000	
26.000000	
33.000000	
26.000000	
22.000000	
21.000000	
26.000000	
20.000000	
20.000000	
32.000000	
24.000000	
23.000000	
21.000000	
23.000000	
19.000000	
24.000000	
43.000000	
20.000000	
33.000000	
25.000000	
22.000000	
18.000000	
27.000000	
26.000000	
20.000000	
28.000000	
16.000000	
23.000000	
17.000000	
30.000000	
16.000000	
27.000000	
23.000000	
15.000000	
23.000000	
31.000000	
25.000000	
27.000000	
26.000000	
16.000000	
24.000000	
27.000000	
20.000000	
21.000000	
22.000000	
18.000000	
24.000000	
22.000000	
22.000000	
19.000000	
30.000000	
16.000000	
23.000000	
28.000000	
25.000000	
19.000000	
22.000000	
16.000000	
25.000000	
19.000000	
22.000000	
19.000000	
20.000000	
18.000000	
24.000000	
18.000000	
15.000000	
26.000000	
31.000000	
26.000000	
28.000000	
21.000000	
23.000000	
17.000000	
25.000000	
28.000000	
25.000000	
22.000000	
21.000000	
25.000000	
28.000000	
25.000000	
35.000000	
16.000000	
25.000000	
17.000000	
28.000000	
27.000000	
23.000000	
25.000000	
29.000000	
24.000000	
27.000000	
23.000000	
26.000000	
24.000000	
32.000000	
23.000000	
19.000000	
19.000000	
19.000000	
28.000000	
20.000000	
31.000000	
27.000000	
18.000000	
35.000000	
26.000000	
30.000000	
26.000000	
24.000000	
25.000000	
23.000000	
23.000000	
33.000000	
26.000000	
28.000000	
21.000000	
29.000000	
37.000000	
21.000000	
23.000000	
32.000000	
22.000000	
24.000000	
17.000000	
23.000000	
29.000000	
20.000000	
26.000000	
21.000000	
32.000000	
27.000000	
26.000000	
22.000000	
26.000000	
32.000000	
38.000000	
31.000000	
35.000000	
18.000000	
28.000000	
28.000000	
33.000000	
20.000000	
39.000000	
28.000000	
19.000000	
32.000000	
27.000000	
32.000000	
29.000000	
30.000000	
35.000000	
27.000000	
28.000000	
32.000000	
33.000000	
32.000000	
42.000000	
48.000000	
49.000000	
69.000000	
79.000000	
96.000000	
110.000000	
167.000000	
