;content of C:\DATA XRD\IMS_LMFO_220510_A4_137.raw - (Diffrac Plus V4 file)
_FILEVERSION = 3
_SAMPLE = IMS_LMFO_220510_A4_137
_+SAMPLE
_USER = Lab Manager
_GONIOMETER_CODE = 20
_STAGE_CODE = 7
; Goniometer : D8 theta/2theta, stage : Chi drive
_SAMPLE_CHANGER_CODE = 0
_ATTACHMENTS_CODE = 0
_GONIOMETER_RADIUS = 217.5
_FIXED_DIVSLIT = 2
_MONOCHROMATOR = 0
; Incident beam monochromator : None
_SOLLER_SLITS_2 = 2
_BETA_FILTER = N
_ANALYZER_CODE = 0
; Received beam analyzer : None
_DATEMEASURED = 16-May-2022 16:37:35
_RUNTIME = 1816.246
_WL_UNIT = A
_WL1 = 1.5406
_WL2 = 1.54439
_WL3 = 1.39222
_WLRATIO = 0.5
_ANODE = Cu
_V4_INF_USER = Lab Manager
_V4_INF_SAMPLEID = IMS_LMFO_220510_A4_137
_V4_INF_CREATOR = BrmlToV4Converter
_V4_INF_CREATOR_VERSION = 7.5.0.0

; Data for range 1
_DRIVE = COUPLED
_STEPTIME = 86.4
_STEPSIZE = 0.01973
_STEPMODE = C
_START = 5
_THETA = 2.5
_2THETA = 5
_PHI = 60.507813
_DETECTORSLIT = out
_TIMESTARTED = 0
_ROTATION_SPEED = 15
_KV = 40
_MA = 40
_RANGE_WL = 1.5406
_3DPLANE = 0
_V4_PSD2THETA = 9999
_V4_PSDCHANNEL1 = 0
_V4_PSDAPERTURE = 3.788144
_V4_PSDTYPE = 5
_V4_PSDFIXED = 0
_V4_COUNTERS_MASK = 1
_V4_DRIVES_MASK = 0
_V4_ENCODERS_MASK = 0
_COUNTS = 1
; Cnt2_D1	
340.000000	
328.000000	
349.000000	
328.000000	
321.000000	
338.000000	
323.000000	
318.000000	
322.000000	
305.000000	
295.000000	
300.000000	
316.000000	
329.000000	
320.000000	
310.000000	
319.000000	
310.000000	
304.000000	
272.000000	
284.000000	
314.000000	
295.000000	
286.000000	
282.000000	
309.000000	
279.000000	
314.000000	
311.000000	
290.000000	
278.000000	
270.000000	
270.000000	
273.000000	
283.000000	
291.000000	
266.000000	
245.000000	
245.000000	
284.000000	
299.000000	
243.000000	
297.000000	
271.000000	
257.000000	
262.000000	
246.000000	
273.000000	
284.000000	
294.000000	
249.000000	
245.000000	
280.000000	
275.000000	
249.000000	
261.000000	
240.000000	
238.000000	
265.000000	
284.000000	
259.000000	
222.000000	
251.000000	
212.000000	
235.000000	
239.000000	
230.000000	
248.000000	
232.000000	
221.000000	
243.000000	
216.000000	
243.000000	
225.000000	
231.000000	
262.000000	
240.000000	
233.000000	
218.000000	
242.000000	
238.000000	
202.000000	
247.000000	
222.000000	
225.000000	
229.000000	
239.000000	
237.000000	
226.000000	
227.000000	
217.000000	
213.000000	
206.000000	
227.000000	
188.000000	
239.000000	
216.000000	
237.000000	
238.000000	
226.000000	
221.000000	
217.000000	
210.000000	
193.000000	
180.000000	
201.000000	
199.000000	
185.000000	
197.000000	
204.000000	
199.000000	
181.000000	
193.000000	
214.000000	
186.000000	
174.000000	
201.000000	
176.000000	
177.000000	
210.000000	
206.000000	
174.000000	
196.000000	
185.000000	
165.000000	
184.000000	
182.000000	
186.000000	
180.000000	
184.000000	
185.000000	
197.000000	
164.000000	
170.000000	
185.000000	
185.000000	
184.000000	
156.000000	
177.000000	
158.000000	
168.000000	
170.000000	
136.000000	
162.000000	
179.000000	
168.000000	
151.000000	
153.000000	
179.000000	
155.000000	
139.000000	
164.000000	
159.000000	
145.000000	
137.000000	
151.000000	
169.000000	
159.000000	
156.000000	
159.000000	
150.000000	
166.000000	
133.000000	
155.000000	
182.000000	
151.000000	
160.000000	
135.000000	
146.000000	
156.000000	
139.000000	
140.000000	
163.000000	
151.000000	
125.000000	
128.000000	
146.000000	
146.000000	
145.000000	
133.000000	
142.000000	
137.000000	
124.000000	
152.000000	
143.000000	
141.000000	
133.000000	
100.000000	
119.000000	
120.000000	
127.000000	
122.000000	
122.000000	
119.000000	
113.000000	
131.000000	
112.000000	
115.000000	
124.000000	
133.000000	
113.000000	
148.000000	
151.000000	
125.000000	
136.000000	
106.000000	
124.000000	
100.000000	
124.000000	
117.000000	
137.000000	
111.000000	
108.000000	
121.000000	
114.000000	
120.000000	
113.000000	
109.000000	
113.000000	
102.000000	
105.000000	
114.000000	
120.000000	
100.000000	
102.000000	
105.000000	
116.000000	
95.000000	
92.000000	
100.000000	
123.000000	
107.000000	
124.000000	
117.000000	
116.000000	
127.000000	
109.000000	
99.000000	
96.000000	
116.000000	
113.000000	
91.000000	
104.000000	
123.000000	
95.000000	
94.000000	
109.000000	
78.000000	
108.000000	
96.000000	
119.000000	
100.000000	
114.000000	
91.000000	
102.000000	
93.000000	
105.000000	
95.000000	
93.000000	
92.000000	
99.000000	
109.000000	
115.000000	
89.000000	
121.000000	
92.000000	
107.000000	
96.000000	
101.000000	
90.000000	
97.000000	
93.000000	
102.000000	
103.000000	
87.000000	
90.000000	
103.000000	
84.000000	
81.000000	
97.000000	
102.000000	
82.000000	
86.000000	
79.000000	
88.000000	
85.000000	
83.000000	
93.000000	
91.000000	
86.000000	
113.000000	
84.000000	
90.000000	
92.000000	
94.000000	
102.000000	
91.000000	
101.000000	
94.000000	
83.000000	
102.000000	
93.000000	
82.000000	
89.000000	
76.000000	
67.000000	
89.000000	
92.000000	
69.000000	
84.000000	
97.000000	
86.000000	
76.000000	
84.000000	
91.000000	
72.000000	
84.000000	
69.000000	
92.000000	
75.000000	
74.000000	
85.000000	
91.000000	
76.000000	
89.000000	
71.000000	
77.000000	
76.000000	
69.000000	
74.000000	
80.000000	
77.000000	
78.000000	
68.000000	
69.000000	
79.000000	
74.000000	
74.000000	
80.000000	
88.000000	
98.000000	
83.000000	
88.000000	
77.000000	
69.000000	
76.000000	
73.000000	
84.000000	
62.000000	
84.000000	
70.000000	
72.000000	
89.000000	
75.000000	
75.000000	
65.000000	
61.000000	
70.000000	
77.000000	
72.000000	
78.000000	
86.000000	
77.000000	
67.000000	
79.000000	
81.000000	
60.000000	
89.000000	
85.000000	
51.000000	
73.000000	
72.000000	
59.000000	
79.000000	
76.000000	
86.000000	
73.000000	
70.000000	
67.000000	
57.000000	
88.000000	
67.000000	
66.000000	
86.000000	
64.000000	
58.000000	
70.000000	
61.000000	
74.000000	
89.000000	
69.000000	
68.000000	
60.000000	
77.000000	
89.000000	
68.000000	
71.000000	
68.000000	
61.000000	
73.000000	
88.000000	
54.000000	
62.000000	
74.000000	
72.000000	
52.000000	
73.000000	
66.000000	
71.000000	
47.000000	
72.000000	
74.000000	
66.000000	
82.000000	
72.000000	
66.000000	
70.000000	
66.000000	
54.000000	
78.000000	
62.000000	
80.000000	
73.000000	
71.000000	
79.000000	
66.000000	
62.000000	
56.000000	
57.000000	
52.000000	
57.000000	
59.000000	
74.000000	
60.000000	
58.000000	
83.000000	
63.000000	
65.000000	
70.000000	
64.000000	
73.000000	
53.000000	
57.000000	
52.000000	
60.000000	
52.000000	
57.000000	
66.000000	
50.000000	
63.000000	
52.000000	
63.000000	
60.000000	
69.000000	
54.000000	
65.000000	
56.000000	
70.000000	
59.000000	
66.000000	
52.000000	
51.000000	
51.000000	
76.000000	
62.000000	
55.000000	
80.000000	
49.000000	
50.000000	
55.000000	
66.000000	
57.000000	
45.000000	
43.000000	
65.000000	
65.000000	
70.000000	
54.000000	
65.000000	
56.000000	
45.000000	
51.000000	
73.000000	
60.000000	
61.000000	
64.000000	
56.000000	
49.000000	
56.000000	
61.000000	
52.000000	
50.000000	
57.000000	
53.000000	
53.000000	
58.000000	
51.000000	
45.000000	
38.000000	
68.000000	
52.000000	
48.000000	
41.000000	
58.000000	
59.000000	
52.000000	
53.000000	
56.000000	
71.000000	
48.000000	
60.000000	
49.000000	
53.000000	
54.000000	
48.000000	
45.000000	
58.000000	
45.000000	
54.000000	
56.000000	
49.000000	
33.000000	
41.000000	
52.000000	
51.000000	
51.000000	
49.000000	
57.000000	
57.000000	
47.000000	
45.000000	
47.000000	
51.000000	
39.000000	
50.000000	
48.000000	
52.000000	
38.000000	
47.000000	
49.000000	
64.000000	
41.000000	
61.000000	
51.000000	
56.000000	
43.000000	
57.000000	
43.000000	
41.000000	
55.000000	
47.000000	
33.000000	
63.000000	
49.000000	
50.000000	
48.000000	
48.000000	
46.000000	
55.000000	
49.000000	
40.000000	
54.000000	
57.000000	
47.000000	
52.000000	
42.000000	
39.000000	
56.000000	
41.000000	
49.000000	
46.000000	
52.000000	
41.000000	
47.000000	
44.000000	
61.000000	
48.000000	
40.000000	
60.000000	
47.000000	
44.000000	
57.000000	
55.000000	
42.000000	
37.000000	
48.000000	
46.000000	
39.000000	
44.000000	
43.000000	
49.000000	
57.000000	
50.000000	
45.000000	
47.000000	
43.000000	
45.000000	
40.000000	
49.000000	
47.000000	
50.000000	
51.000000	
39.000000	
46.000000	
40.000000	
45.000000	
51.000000	
48.000000	
55.000000	
31.000000	
41.000000	
28.000000	
48.000000	
52.000000	
59.000000	
36.000000	
38.000000	
50.000000	
57.000000	
54.000000	
52.000000	
46.000000	
48.000000	
40.000000	
48.000000	
48.000000	
49.000000	
46.000000	
30.000000	
46.000000	
41.000000	
58.000000	
40.000000	
49.000000	
40.000000	
41.000000	
49.000000	
46.000000	
44.000000	
43.000000	
49.000000	
40.000000	
33.000000	
35.000000	
48.000000	
43.000000	
44.000000	
48.000000	
47.000000	
50.000000	
36.000000	
37.000000	
49.000000	
52.000000	
34.000000	
43.000000	
46.000000	
65.000000	
56.000000	
48.000000	
46.000000	
50.000000	
49.000000	
66.000000	
57.000000	
60.000000	
48.000000	
57.000000	
78.000000	
89.000000	
89.000000	
107.000000	
87.000000	
118.000000	
117.000000	
140.000000	
125.000000	
147.000000	
188.000000	
183.000000	
181.000000	
239.000000	
306.000000	
472.000000	
725.000000	
1388.000000	
2304.000000	
4054.000000	
5532.000000	
5588.000000	
3572.000000	
1948.000000	
1091.000000	
689.000000	
599.000000	
441.000000	
428.000000	
369.000000	
314.000000	
294.000000	
239.000000	
233.000000	
191.000000	
198.000000	
161.000000	
140.000000	
122.000000	
96.000000	
90.000000	
98.000000	
89.000000	
70.000000	
75.000000	
80.000000	
70.000000	
73.000000	
56.000000	
62.000000	
50.000000	
51.000000	
50.000000	
47.000000	
49.000000	
50.000000	
50.000000	
46.000000	
57.000000	
40.000000	
39.000000	
37.000000	
45.000000	
39.000000	
38.000000	
50.000000	
36.000000	
50.000000	
42.000000	
32.000000	
58.000000	
49.000000	
39.000000	
40.000000	
41.000000	
34.000000	
40.000000	
33.000000	
50.000000	
37.000000	
52.000000	
35.000000	
44.000000	
35.000000	
36.000000	
30.000000	
42.000000	
28.000000	
35.000000	
33.000000	
33.000000	
36.000000	
40.000000	
43.000000	
42.000000	
35.000000	
44.000000	
39.000000	
39.000000	
42.000000	
32.000000	
24.000000	
30.000000	
33.000000	
37.000000	
27.000000	
38.000000	
40.000000	
25.000000	
30.000000	
40.000000	
35.000000	
34.000000	
34.000000	
44.000000	
37.000000	
32.000000	
38.000000	
47.000000	
37.000000	
32.000000	
31.000000	
30.000000	
55.000000	
37.000000	
51.000000	
30.000000	
34.000000	
24.000000	
31.000000	
36.000000	
45.000000	
26.000000	
32.000000	
37.000000	
44.000000	
33.000000	
32.000000	
29.000000	
30.000000	
25.000000	
37.000000	
30.000000	
26.000000	
33.000000	
36.000000	
30.000000	
22.000000	
29.000000	
50.000000	
35.000000	
22.000000	
34.000000	
29.000000	
41.000000	
30.000000	
39.000000	
24.000000	
33.000000	
28.000000	
35.000000	
38.000000	
29.000000	
36.000000	
43.000000	
34.000000	
38.000000	
36.000000	
39.000000	
39.000000	
27.000000	
31.000000	
33.000000	
26.000000	
25.000000	
36.000000	
21.000000	
29.000000	
30.000000	
43.000000	
27.000000	
24.000000	
27.000000	
29.000000	
22.000000	
27.000000	
39.000000	
28.000000	
32.000000	
33.000000	
31.000000	
30.000000	
33.000000	
33.000000	
21.000000	
44.000000	
39.000000	
29.000000	
35.000000	
31.000000	
28.000000	
29.000000	
18.000000	
26.000000	
31.000000	
30.000000	
25.000000	
27.000000	
37.000000	
26.000000	
27.000000	
34.000000	
34.000000	
32.000000	
48.000000	
27.000000	
20.000000	
34.000000	
25.000000	
34.000000	
20.000000	
30.000000	
30.000000	
34.000000	
21.000000	
32.000000	
27.000000	
32.000000	
26.000000	
31.000000	
38.000000	
32.000000	
31.000000	
37.000000	
25.000000	
29.000000	
29.000000	
35.000000	
26.000000	
29.000000	
26.000000	
27.000000	
27.000000	
19.000000	
26.000000	
21.000000	
19.000000	
33.000000	
36.000000	
21.000000	
35.000000	
24.000000	
25.000000	
28.000000	
23.000000	
22.000000	
29.000000	
29.000000	
23.000000	
32.000000	
22.000000	
25.000000	
27.000000	
25.000000	
36.000000	
30.000000	
26.000000	
28.000000	
28.000000	
26.000000	
25.000000	
31.000000	
16.000000	
28.000000	
25.000000	
23.000000	
35.000000	
30.000000	
27.000000	
34.000000	
30.000000	
20.000000	
20.000000	
26.000000	
25.000000	
32.000000	
27.000000	
31.000000	
35.000000	
31.000000	
28.000000	
26.000000	
35.000000	
24.000000	
24.000000	
21.000000	
25.000000	
23.000000	
28.000000	
34.000000	
23.000000	
25.000000	
20.000000	
28.000000	
30.000000	
32.000000	
27.000000	
29.000000	
29.000000	
32.000000	
28.000000	
25.000000	
30.000000	
33.000000	
31.000000	
23.000000	
30.000000	
22.000000	
40.000000	
29.000000	
25.000000	
33.000000	
32.000000	
24.000000	
25.000000	
24.000000	
32.000000	
30.000000	
29.000000	
23.000000	
33.000000	
30.000000	
21.000000	
28.000000	
23.000000	
22.000000	
25.000000	
28.000000	
30.000000	
18.000000	
27.000000	
27.000000	
22.000000	
24.000000	
30.000000	
32.000000	
26.000000	
25.000000	
25.000000	
24.000000	
22.000000	
22.000000	
27.000000	
34.000000	
26.000000	
21.000000	
29.000000	
22.000000	
25.000000	
27.000000	
21.000000	
19.000000	
28.000000	
18.000000	
24.000000	
20.000000	
23.000000	
23.000000	
33.000000	
27.000000	
17.000000	
25.000000	
30.000000	
33.000000	
35.000000	
23.000000	
26.000000	
26.000000	
19.000000	
35.000000	
20.000000	
24.000000	
24.000000	
23.000000	
26.000000	
27.000000	
26.000000	
18.000000	
23.000000	
24.000000	
27.000000	
26.000000	
26.000000	
31.000000	
19.000000	
25.000000	
25.000000	
19.000000	
16.000000	
23.000000	
17.000000	
29.000000	
22.000000	
17.000000	
30.000000	
20.000000	
24.000000	
21.000000	
25.000000	
23.000000	
22.000000	
25.000000	
28.000000	
28.000000	
37.000000	
24.000000	
30.000000	
26.000000	
27.000000	
24.000000	
23.000000	
32.000000	
22.000000	
18.000000	
23.000000	
22.000000	
32.000000	
26.000000	
37.000000	
25.000000	
28.000000	
30.000000	
30.000000	
28.000000	
38.000000	
26.000000	
14.000000	
25.000000	
20.000000	
25.000000	
15.000000	
22.000000	
21.000000	
18.000000	
27.000000	
29.000000	
22.000000	
22.000000	
32.000000	
14.000000	
25.000000	
32.000000	
18.000000	
27.000000	
24.000000	
24.000000	
23.000000	
20.000000	
22.000000	
27.000000	
27.000000	
30.000000	
27.000000	
28.000000	
26.000000	
30.000000	
20.000000	
30.000000	
27.000000	
43.000000	
25.000000	
29.000000	
30.000000	
25.000000	
20.000000	
23.000000	
17.000000	
26.000000	
20.000000	
17.000000	
21.000000	
23.000000	
31.000000	
21.000000	
21.000000	
30.000000	
23.000000	
22.000000	
22.000000	
21.000000	
24.000000	
30.000000	
20.000000	
27.000000	
25.000000	
20.000000	
32.000000	
32.000000	
24.000000	
31.000000	
30.000000	
28.000000	
20.000000	
26.000000	
25.000000	
27.000000	
26.000000	
19.000000	
23.000000	
25.000000	
30.000000	
25.000000	
31.000000	
21.000000	
25.000000	
31.000000	
38.000000	
27.000000	
25.000000	
30.000000	
33.000000	
24.000000	
23.000000	
24.000000	
25.000000	
36.000000	
27.000000	
31.000000	
28.000000	
22.000000	
28.000000	
26.000000	
16.000000	
28.000000	
31.000000	
23.000000	
29.000000	
27.000000	
29.000000	
24.000000	
34.000000	
17.000000	
29.000000	
19.000000	
33.000000	
29.000000	
27.000000	
20.000000	
32.000000	
33.000000	
38.000000	
21.000000	
33.000000	
30.000000	
28.000000	
34.000000	
29.000000	
35.000000	
22.000000	
37.000000	
23.000000	
35.000000	
25.000000	
31.000000	
26.000000	
36.000000	
23.000000	
27.000000	
33.000000	
36.000000	
40.000000	
38.000000	
30.000000	
41.000000	
30.000000	
21.000000	
44.000000	
29.000000	
35.000000	
51.000000	
29.000000	
37.000000	
32.000000	
35.000000	
24.000000	
30.000000	
44.000000	
37.000000	
43.000000	
38.000000	
49.000000	
33.000000	
42.000000	
41.000000	
35.000000	
47.000000	
44.000000	
35.000000	
45.000000	
39.000000	
47.000000	
46.000000	
49.000000	
32.000000	
43.000000	
37.000000	
40.000000	
40.000000	
39.000000	
49.000000	
41.000000	
41.000000	
46.000000	
36.000000	
35.000000	
31.000000	
28.000000	
34.000000	
62.000000	
38.000000	
49.000000	
72.000000	
95.000000	
120.000000	
197.000000	
200.000000	
122.000000	
101.000000	
105.000000	
74.000000	
62.000000	
55.000000	
46.000000	
39.000000	
46.000000	
41.000000	
38.000000	
46.000000	
26.000000	
26.000000	
25.000000	
40.000000	
37.000000	
38.000000	
26.000000	
22.000000	
31.000000	
22.000000	
25.000000	
31.000000	
33.000000	
23.000000	
34.000000	
25.000000	
25.000000	
19.000000	
28.000000	
30.000000	
24.000000	
23.000000	
30.000000	
19.000000	
28.000000	
25.000000	
12.000000	
33.000000	
17.000000	
17.000000	
39.000000	
32.000000	
27.000000	
36.000000	
29.000000	
25.000000	
43.000000	
25.000000	
24.000000	
21.000000	
26.000000	
32.000000	
26.000000	
17.000000	
21.000000	
24.000000	
18.000000	
30.000000	
31.000000	
27.000000	
24.000000	
29.000000	
27.000000	
25.000000	
23.000000	
21.000000	
26.000000	
17.000000	
23.000000	
26.000000	
39.000000	
33.000000	
22.000000	
21.000000	
24.000000	
27.000000	
15.000000	
21.000000	
18.000000	
23.000000	
20.000000	
26.000000	
24.000000	
23.000000	
31.000000	
14.000000	
29.000000	
28.000000	
27.000000	
21.000000	
24.000000	
25.000000	
22.000000	
25.000000	
20.000000	
26.000000	
16.000000	
28.000000	
20.000000	
20.000000	
26.000000	
23.000000	
26.000000	
28.000000	
24.000000	
24.000000	
31.000000	
20.000000	
30.000000	
13.000000	
26.000000	
21.000000	
30.000000	
26.000000	
23.000000	
27.000000	
27.000000	
17.000000	
25.000000	
28.000000	
35.000000	
32.000000	
27.000000	
26.000000	
38.000000	
31.000000	
29.000000	
32.000000	
28.000000	
30.000000	
29.000000	
29.000000	
19.000000	
27.000000	
28.000000	
17.000000	
22.000000	
23.000000	
20.000000	
31.000000	
27.000000	
32.000000	
25.000000	
26.000000	
33.000000	
34.000000	
21.000000	
25.000000	
30.000000	
27.000000	
29.000000	
31.000000	
18.000000	
27.000000	
30.000000	
34.000000	
25.000000	
33.000000	
26.000000	
23.000000	
45.000000	
20.000000	
22.000000	
26.000000	
23.000000	
32.000000	
25.000000	
27.000000	
24.000000	
31.000000	
34.000000	
30.000000	
26.000000	
28.000000	
29.000000	
37.000000	
31.000000	
43.000000	
35.000000	
34.000000	
45.000000	
40.000000	
41.000000	
36.000000	
38.000000	
29.000000	
39.000000	
47.000000	
46.000000	
37.000000	
43.000000	
35.000000	
43.000000	
48.000000	
60.000000	
48.000000	
55.000000	
52.000000	
39.000000	
54.000000	
50.000000	
64.000000	
46.000000	
51.000000	
55.000000	
54.000000	
56.000000	
62.000000	
47.000000	
63.000000	
57.000000	
52.000000	
65.000000	
67.000000	
56.000000	
66.000000	
70.000000	
65.000000	
58.000000	
62.000000	
44.000000	
69.000000	
53.000000	
56.000000	
63.000000	
64.000000	
66.000000	
82.000000	
54.000000	
63.000000	
70.000000	
59.000000	
58.000000	
63.000000	
61.000000	
52.000000	
70.000000	
71.000000	
67.000000	
74.000000	
77.000000	
71.000000	
74.000000	
74.000000	
85.000000	
61.000000	
88.000000	
83.000000	
92.000000	
81.000000	
83.000000	
98.000000	
122.000000	
89.000000	
98.000000	
122.000000	
111.000000	
120.000000	
142.000000	
116.000000	
132.000000	
150.000000	
168.000000	
208.000000	
242.000000	
310.000000	
399.000000	
599.000000	
1012.000000	
1559.000000	
2462.000000	
2971.000000	
2746.000000	
2117.000000	
1531.000000	
1099.000000	
854.000000	
733.000000	
602.000000	
464.000000	
359.000000	
366.000000	
310.000000	
258.000000	
260.000000	
196.000000	
192.000000	
158.000000	
140.000000	
121.000000	
113.000000	
99.000000	
81.000000	
84.000000	
68.000000	
74.000000	
56.000000	
58.000000	
51.000000	
47.000000	
53.000000	
47.000000	
38.000000	
31.000000	
31.000000	
43.000000	
33.000000	
31.000000	
33.000000	
40.000000	
31.000000	
29.000000	
27.000000	
27.000000	
33.000000	
25.000000	
34.000000	
30.000000	
28.000000	
25.000000	
29.000000	
45.000000	
37.000000	
36.000000	
47.000000	
47.000000	
36.000000	
34.000000	
30.000000	
39.000000	
39.000000	
63.000000	
51.000000	
40.000000	
43.000000	
44.000000	
42.000000	
56.000000	
53.000000	
39.000000	
46.000000	
53.000000	
57.000000	
53.000000	
47.000000	
49.000000	
46.000000	
53.000000	
57.000000	
59.000000	
77.000000	
112.000000	
201.000000	
339.000000	
430.000000	
471.000000	
357.000000	
267.000000	
220.000000	
153.000000	
146.000000	
128.000000	
136.000000	
127.000000	
96.000000	
94.000000	
87.000000	
68.000000	
71.000000	
67.000000	
47.000000	
29.000000	
37.000000	
33.000000	
35.000000	
31.000000	
38.000000	
31.000000	
23.000000	
17.000000	
31.000000	
25.000000	
24.000000	
38.000000	
20.000000	
30.000000	
20.000000	
23.000000	
18.000000	
30.000000	
15.000000	
24.000000	
22.000000	
24.000000	
24.000000	
20.000000	
22.000000	
26.000000	
20.000000	
26.000000	
22.000000	
22.000000	
19.000000	
38.000000	
23.000000	
19.000000	
32.000000	
18.000000	
27.000000	
24.000000	
24.000000	
22.000000	
21.000000	
23.000000	
26.000000	
22.000000	
22.000000	
25.000000	
12.000000	
21.000000	
21.000000	
21.000000	
19.000000	
27.000000	
25.000000	
17.000000	
20.000000	
28.000000	
19.000000	
21.000000	
26.000000	
20.000000	
21.000000	
24.000000	
18.000000	
17.000000	
19.000000	
19.000000	
28.000000	
17.000000	
13.000000	
24.000000	
19.000000	
28.000000	
20.000000	
21.000000	
18.000000	
26.000000	
23.000000	
27.000000	
33.000000	
19.000000	
24.000000	
15.000000	
22.000000	
23.000000	
13.000000	
25.000000	
23.000000	
20.000000	
31.000000	
34.000000	
30.000000	
18.000000	
23.000000	
23.000000	
19.000000	
22.000000	
23.000000	
19.000000	
24.000000	
17.000000	
25.000000	
22.000000	
21.000000	
27.000000	
21.000000	
29.000000	
35.000000	
28.000000	
21.000000	
22.000000	
25.000000	
29.000000	
24.000000	
29.000000	
18.000000	
27.000000	
21.000000	
30.000000	
22.000000	
30.000000	
24.000000	
26.000000	
25.000000	
26.000000	
22.000000	
25.000000	
15.000000	
24.000000	
23.000000	
23.000000	
18.000000	
20.000000	
23.000000	
23.000000	
19.000000	
25.000000	
18.000000	
23.000000	
24.000000	
22.000000	
17.000000	
28.000000	
16.000000	
20.000000	
23.000000	
17.000000	
19.000000	
20.000000	
28.000000	
23.000000	
25.000000	
26.000000	
16.000000	
23.000000	
31.000000	
24.000000	
20.000000	
20.000000	
31.000000	
20.000000	
32.000000	
23.000000	
15.000000	
35.000000	
28.000000	
37.000000	
36.000000	
13.000000	
24.000000	
28.000000	
16.000000	
20.000000	
34.000000	
20.000000	
23.000000	
19.000000	
36.000000	
20.000000	
27.000000	
38.000000	
15.000000	
31.000000	
28.000000	
31.000000	
32.000000	
31.000000	
28.000000	
44.000000	
39.000000	
26.000000	
29.000000	
33.000000	
30.000000	
29.000000	
27.000000	
36.000000	
29.000000	
31.000000	
27.000000	
31.000000	
40.000000	
30.000000	
38.000000	
35.000000	
27.000000	
37.000000	
27.000000	
42.000000	
31.000000	
29.000000	
30.000000	
26.000000	
35.000000	
33.000000	
38.000000	
41.000000	
32.000000	
29.000000	
29.000000	
21.000000	
40.000000	
36.000000	
26.000000	
29.000000	
38.000000	
41.000000	
34.000000	
31.000000	
33.000000	
31.000000	
21.000000	
41.000000	
38.000000	
28.000000	
31.000000	
36.000000	
39.000000	
37.000000	
38.000000	
40.000000	
36.000000	
38.000000	
37.000000	
34.000000	
37.000000	
32.000000	
40.000000	
34.000000	
37.000000	
34.000000	
28.000000	
46.000000	
43.000000	
46.000000	
33.000000	
42.000000	
35.000000	
51.000000	
36.000000	
30.000000	
36.000000	
52.000000	
44.000000	
55.000000	
57.000000	
36.000000	
60.000000	
44.000000	
57.000000	
59.000000	
61.000000	
66.000000	
54.000000	
55.000000	
67.000000	
70.000000	
70.000000	
77.000000	
70.000000	
84.000000	
87.000000	
98.000000	
144.000000	
159.000000	
176.000000	
245.000000	
395.000000	
640.000000	
998.000000	
1461.000000	
1933.000000	
1936.000000	
1659.000000	
1404.000000	
1092.000000	
938.000000	
809.000000	
667.000000	
610.000000	
495.000000	
474.000000	
387.000000	
371.000000	
311.000000	
289.000000	
241.000000	
270.000000	
216.000000	
204.000000	
166.000000	
157.000000	
136.000000	
115.000000	
109.000000	
119.000000	
86.000000	
102.000000	
89.000000	
67.000000	
73.000000	
67.000000	
58.000000	
63.000000	
65.000000	
48.000000	
49.000000	
47.000000	
47.000000	
40.000000	
44.000000	
42.000000	
48.000000	
31.000000	
37.000000	
37.000000	
32.000000	
25.000000	
27.000000	
36.000000	
32.000000	
28.000000	
28.000000	
30.000000	
24.000000	
37.000000	
22.000000	
31.000000	
42.000000	
36.000000	
23.000000	
23.000000	
14.000000	
31.000000	
27.000000	
38.000000	
23.000000	
19.000000	
29.000000	
21.000000	
24.000000	
32.000000	
15.000000	
21.000000	
13.000000	
13.000000	
29.000000	
24.000000	
22.000000	
11.000000	
22.000000	
20.000000	
25.000000	
19.000000	
22.000000	
16.000000	
26.000000	
16.000000	
22.000000	
17.000000	
27.000000	
30.000000	
19.000000	
22.000000	
16.000000	
23.000000	
24.000000	
20.000000	
21.000000	
20.000000	
22.000000	
20.000000	
22.000000	
22.000000	
21.000000	
21.000000	
17.000000	
21.000000	
22.000000	
19.000000	
24.000000	
22.000000	
21.000000	
19.000000	
27.000000	
30.000000	
24.000000	
25.000000	
27.000000	
20.000000	
15.000000	
21.000000	
23.000000	
29.000000	
22.000000	
21.000000	
20.000000	
15.000000	
17.000000	
26.000000	
33.000000	
9.000000	
22.000000	
20.000000	
20.000000	
19.000000	
13.000000	
22.000000	
23.000000	
21.000000	
14.000000	
25.000000	
18.000000	
25.000000	
29.000000	
12.000000	
23.000000	
13.000000	
28.000000	
21.000000	
21.000000	
17.000000	
26.000000	
23.000000	
21.000000	
19.000000	
22.000000	
22.000000	
23.000000	
20.000000	
29.000000	
22.000000	
24.000000	
18.000000	
18.000000	
15.000000	
19.000000	
21.000000	
26.000000	
28.000000	
23.000000	
28.000000	
25.000000	
21.000000	
20.000000	
28.000000	
18.000000	
26.000000	
26.000000	
27.000000	
28.000000	
28.000000	
26.000000	
29.000000	
26.000000	
22.000000	
23.000000	
29.000000	
30.000000	
16.000000	
29.000000	
27.000000	
31.000000	
33.000000	
33.000000	
24.000000	
31.000000	
31.000000	
28.000000	
31.000000	
30.000000	
33.000000	
40.000000	
31.000000	
46.000000	
38.000000	
56.000000	
62.000000	
102.000000	
155.000000	
247.000000	
279.000000	
268.000000	
215.000000	
192.000000	
155.000000	
128.000000	
126.000000	
125.000000	
118.000000	
104.000000	
100.000000	
82.000000	
76.000000	
81.000000	
63.000000	
66.000000	
68.000000	
41.000000	
46.000000	
49.000000	
42.000000	
42.000000	
40.000000	
41.000000	
28.000000	
31.000000	
29.000000	
31.000000	
29.000000	
28.000000	
26.000000	
22.000000	
20.000000	
26.000000	
20.000000	
24.000000	
21.000000	
22.000000	
22.000000	
29.000000	
22.000000	
21.000000	
24.000000	
17.000000	
19.000000	
14.000000	
14.000000	
19.000000	
22.000000	
26.000000	
18.000000	
21.000000	
17.000000	
20.000000	
19.000000	
25.000000	
31.000000	
22.000000	
19.000000	
17.000000	
19.000000	
28.000000	
27.000000	
26.000000	
15.000000	
21.000000	
24.000000	
26.000000	
21.000000	
20.000000	
15.000000	
20.000000	
21.000000	
22.000000	
20.000000	
18.000000	
15.000000	
20.000000	
12.000000	
21.000000	
20.000000	
12.000000	
13.000000	
17.000000	
27.000000	
27.000000	
17.000000	
17.000000	
15.000000	
25.000000	
17.000000	
19.000000	
23.000000	
23.000000	
22.000000	
18.000000	
25.000000	
20.000000	
16.000000	
20.000000	
12.000000	
23.000000	
28.000000	
19.000000	
21.000000	
13.000000	
26.000000	
11.000000	
15.000000	
22.000000	
13.000000	
19.000000	
24.000000	
27.000000	
16.000000	
9.000000	
15.000000	
19.000000	
15.000000	
18.000000	
23.000000	
21.000000	
23.000000	
17.000000	
18.000000	
18.000000	
28.000000	
24.000000	
22.000000	
17.000000	
17.000000	
22.000000	
25.000000	
16.000000	
19.000000	
23.000000	
20.000000	
18.000000	
17.000000	
19.000000	
16.000000	
16.000000	
16.000000	
14.000000	
14.000000	
33.000000	
18.000000	
14.000000	
24.000000	
14.000000	
24.000000	
18.000000	
20.000000	
14.000000	
20.000000	
19.000000	
19.000000	
19.000000	
17.000000	
27.000000	
16.000000	
13.000000	
19.000000	
15.000000	
20.000000	
9.000000	
17.000000	
17.000000	
21.000000	
21.000000	
17.000000	
16.000000	
22.000000	
16.000000	
12.000000	
19.000000	
10.000000	
22.000000	
20.000000	
17.000000	
22.000000	
14.000000	
21.000000	
16.000000	
22.000000	
22.000000	
20.000000	
25.000000	
14.000000	
15.000000	
13.000000	
22.000000	
22.000000	
19.000000	
26.000000	
14.000000	
25.000000	
16.000000	
25.000000	
20.000000	
17.000000	
19.000000	
20.000000	
15.000000	
20.000000	
15.000000	
18.000000	
24.000000	
16.000000	
22.000000	
18.000000	
13.000000	
25.000000	
19.000000	
17.000000	
12.000000	
19.000000	
23.000000	
17.000000	
17.000000	
26.000000	
22.000000	
24.000000	
14.000000	
15.000000	
21.000000	
12.000000	
21.000000	
16.000000	
17.000000	
19.000000	
21.000000	
16.000000	
14.000000	
13.000000	
18.000000	
15.000000	
15.000000	
26.000000	
17.000000	
23.000000	
13.000000	
16.000000	
17.000000	
21.000000	
20.000000	
20.000000	
17.000000	
14.000000	
20.000000	
22.000000	
20.000000	
21.000000	
19.000000	
31.000000	
22.000000	
15.000000	
19.000000	
21.000000	
21.000000	
18.000000	
16.000000	
21.000000	
26.000000	
22.000000	
15.000000	
19.000000	
25.000000	
14.000000	
18.000000	
19.000000	
23.000000	
20.000000	
22.000000	
19.000000	
21.000000	
18.000000	
16.000000	
28.000000	
13.000000	
23.000000	
23.000000	
25.000000	
11.000000	
16.000000	
24.000000	
21.000000	
21.000000	
28.000000	
24.000000	
19.000000	
26.000000	
19.000000	
22.000000	
23.000000	
19.000000	
26.000000	
20.000000	
24.000000	
23.000000	
26.000000	
26.000000	
13.000000	
20.000000	
27.000000	
25.000000	
22.000000	
28.000000	
29.000000	
25.000000	
28.000000	
19.000000	
33.000000	
22.000000	
30.000000	
16.000000	
29.000000	
37.000000	
21.000000	
33.000000	
31.000000	
47.000000	
41.000000	
29.000000	
34.000000	
31.000000	
32.000000	
38.000000	
15.000000	
32.000000	
28.000000	
23.000000	
26.000000	
30.000000	
12.000000	
17.000000	
17.000000	
36.000000	
30.000000	
16.000000	
27.000000	
21.000000	
16.000000	
21.000000	
26.000000	
26.000000	
25.000000	
26.000000	
18.000000	
17.000000	
19.000000	
26.000000	
14.000000	
15.000000	
22.000000	
20.000000	
26.000000	
19.000000	
27.000000	
24.000000	
15.000000	
22.000000	
16.000000	
22.000000	
23.000000	
30.000000	
19.000000	
23.000000	
21.000000	
20.000000	
24.000000	
26.000000	
23.000000	
27.000000	
33.000000	
17.000000	
25.000000	
32.000000	
29.000000	
24.000000	
19.000000	
20.000000	
22.000000	
21.000000	
23.000000	
31.000000	
19.000000	
22.000000	
28.000000	
28.000000	
16.000000	
23.000000	
23.000000	
18.000000	
29.000000	
27.000000	
29.000000	
23.000000	
20.000000	
37.000000	
24.000000	
18.000000	
19.000000	
27.000000	
21.000000	
27.000000	
18.000000	
27.000000	
25.000000	
31.000000	
18.000000	
29.000000	
24.000000	
25.000000	
19.000000	
28.000000	
22.000000	
27.000000	
25.000000	
24.000000	
24.000000	
35.000000	
24.000000	
25.000000	
14.000000	
27.000000	
23.000000	
32.000000	
19.000000	
27.000000	
25.000000	
25.000000	
21.000000	
22.000000	
22.000000	
22.000000	
35.000000	
29.000000	
27.000000	
26.000000	
30.000000	
26.000000	
27.000000	
18.000000	
13.000000	
32.000000	
25.000000	
27.000000	
27.000000	
19.000000	
29.000000	
20.000000	
27.000000	
23.000000	
25.000000	
28.000000	
21.000000	
32.000000	
32.000000	
30.000000	
31.000000	
40.000000	
29.000000	
36.000000	
40.000000	
35.000000	
24.000000	
41.000000	
27.000000	
30.000000	
36.000000	
31.000000	
41.000000	
35.000000	
32.000000	
31.000000	
37.000000	
38.000000	
38.000000	
45.000000	
50.000000	
40.000000	
50.000000	
37.000000	
40.000000	
50.000000	
42.000000	
51.000000	
49.000000	
52.000000	
73.000000	
59.000000	
63.000000	
77.000000	
81.000000	
90.000000	
90.000000	
126.000000	
196.000000	
218.000000	
330.000000	
538.000000	
640.000000	
742.000000	
673.000000	
656.000000	
513.000000	
435.000000	
363.000000	
314.000000	
313.000000	
258.000000	
248.000000	
236.000000	
181.000000	
169.000000	
168.000000	
153.000000	
157.000000	
115.000000	
140.000000	
111.000000	
112.000000	
83.000000	
74.000000	
86.000000	
67.000000	
68.000000	
44.000000	
66.000000	
57.000000	
45.000000	
28.000000	
46.000000	
55.000000	
45.000000	
34.000000	
33.000000	
33.000000	
32.000000	
31.000000	
36.000000	
33.000000	
29.000000	
24.000000	
18.000000	
36.000000	
34.000000	
29.000000	
23.000000	
23.000000	
34.000000	
25.000000	
24.000000	
14.000000	
14.000000	
16.000000	
15.000000	
21.000000	
16.000000	
21.000000	
18.000000	
17.000000	
19.000000	
19.000000	
21.000000	
18.000000	
15.000000	
15.000000	
24.000000	
20.000000	
19.000000	
18.000000	
21.000000	
14.000000	
14.000000	
17.000000	
26.000000	
17.000000	
20.000000	
21.000000	
18.000000	
26.000000	
18.000000	
22.000000	
25.000000	
16.000000	
20.000000	
21.000000	
24.000000	
16.000000	
15.000000	
22.000000	
14.000000	
20.000000	
17.000000	
15.000000	
24.000000	
16.000000	
13.000000	
26.000000	
19.000000	
13.000000	
25.000000	
14.000000	
26.000000	
15.000000	
32.000000	
10.000000	
18.000000	
18.000000	
18.000000	
15.000000	
25.000000	
18.000000	
18.000000	
24.000000	
30.000000	
23.000000	
20.000000	
23.000000	
19.000000	
13.000000	
20.000000	
20.000000	
19.000000	
16.000000	
14.000000	
14.000000	
26.000000	
17.000000	
24.000000	
17.000000	
18.000000	
13.000000	
16.000000	
18.000000	
21.000000	
19.000000	
22.000000	
16.000000	
13.000000	
19.000000	
16.000000	
13.000000	
18.000000	
18.000000	
19.000000	
11.000000	
20.000000	
16.000000	
15.000000	
17.000000	
8.000000	
18.000000	
19.000000	
15.000000	
20.000000	
22.000000	
18.000000	
22.000000	
22.000000	
12.000000	
19.000000	
24.000000	
19.000000	
26.000000	
20.000000	
15.000000	
13.000000	
28.000000	
23.000000	
21.000000	
18.000000	
16.000000	
11.000000	
20.000000	
21.000000	
25.000000	
25.000000	
28.000000	
30.000000	
33.000000	
30.000000	
33.000000	
19.000000	
34.000000	
28.000000	
35.000000	
22.000000	
29.000000	
32.000000	
36.000000	
41.000000	
21.000000	
25.000000	
42.000000	
45.000000	
35.000000	
42.000000	
43.000000	
46.000000	
36.000000	
42.000000	
46.000000	
42.000000	
41.000000	
43.000000	
36.000000	
50.000000	
45.000000	
42.000000	
40.000000	
46.000000	
46.000000	
54.000000	
48.000000	
39.000000	
47.000000	
46.000000	
56.000000	
51.000000	
49.000000	
46.000000	
46.000000	
57.000000	
45.000000	
53.000000	
50.000000	
51.000000	
51.000000	
49.000000	
57.000000	
38.000000	
51.000000	
42.000000	
49.000000	
55.000000	
44.000000	
60.000000	
55.000000	
48.000000	
61.000000	
50.000000	
61.000000	
44.000000	
48.000000	
41.000000	
36.000000	
40.000000	
50.000000	
42.000000	
40.000000	
45.000000	
55.000000	
50.000000	
38.000000	
58.000000	
50.000000	
62.000000	
48.000000	
60.000000	
52.000000	
60.000000	
64.000000	
44.000000	
62.000000	
48.000000	
54.000000	
63.000000	
64.000000	
58.000000	
72.000000	
80.000000	
83.000000	
69.000000	
72.000000	
76.000000	
80.000000	
86.000000	
107.000000	
95.000000	
95.000000	
138.000000	
143.000000	
215.000000	
292.000000	
401.000000	
604.000000	
761.000000	
876.000000	
876.000000	
761.000000	
743.000000	
557.000000	
560.000000	
486.000000	
464.000000	
406.000000	
391.000000	
343.000000	
303.000000	
301.000000	
307.000000	
273.000000	
260.000000	
213.000000	
213.000000	
174.000000	
178.000000	
150.000000	
135.000000	
122.000000	
137.000000	
106.000000	
86.000000	
88.000000	
83.000000	
78.000000	
61.000000	
80.000000	
50.000000	
54.000000	
51.000000	
39.000000	
57.000000	
57.000000	
49.000000	
35.000000	
28.000000	
30.000000	
27.000000	
26.000000	
32.000000	
26.000000	
25.000000	
25.000000	
32.000000	
25.000000	
31.000000	
24.000000	
35.000000	
35.000000	
22.000000	
31.000000	
21.000000	
24.000000	
13.000000	
26.000000	
24.000000	
23.000000	
26.000000	
23.000000	
13.000000	
27.000000	
20.000000	
13.000000	
11.000000	
12.000000	
28.000000	
20.000000	
31.000000	
18.000000	
11.000000	
21.000000	
8.000000	
19.000000	
18.000000	
25.000000	
19.000000	
18.000000	
18.000000	
23.000000	
17.000000	
13.000000	
21.000000	
20.000000	
23.000000	
31.000000	
23.000000	
10.000000	
21.000000	
17.000000	
23.000000	
17.000000	
20.000000	
11.000000	
20.000000	
9.000000	
24.000000	
30.000000	
12.000000	
17.000000	
18.000000	
21.000000	
19.000000	
17.000000	
19.000000	
19.000000	
26.000000	
19.000000	
22.000000	
26.000000	
17.000000	
23.000000	
18.000000	
16.000000	
23.000000	
25.000000	
18.000000	
15.000000	
23.000000	
17.000000	
17.000000	
16.000000	
19.000000	
15.000000	
13.000000	
28.000000	
25.000000	
24.000000	
27.000000	
30.000000	
29.000000	
25.000000	
24.000000	
18.000000	
21.000000	
23.000000	
22.000000	
18.000000	
24.000000	
21.000000	
38.000000	
23.000000	
37.000000	
25.000000	
33.000000	
27.000000	
35.000000	
36.000000	
25.000000	
32.000000	
31.000000	
35.000000	
29.000000	
46.000000	
35.000000	
57.000000	
51.000000	
71.000000	
82.000000	
159.000000	
159.000000	
238.000000	
250.000000	
279.000000	
250.000000	
215.000000	
209.000000	
220.000000	
173.000000	
169.000000	
129.000000	
131.000000	
125.000000	
122.000000	
110.000000	
111.000000	
110.000000	
99.000000	
82.000000	
104.000000	
82.000000	
65.000000	
76.000000	
51.000000	
46.000000	
58.000000	
62.000000	
47.000000	
46.000000	
48.000000	
45.000000	
40.000000	
40.000000	
40.000000	
26.000000	
46.000000	
28.000000	
30.000000	
29.000000	
27.000000	
26.000000	
30.000000	
30.000000	
22.000000	
19.000000	
24.000000	
26.000000	
19.000000	
18.000000	
18.000000	
24.000000	
22.000000	
25.000000	
15.000000	
17.000000	
25.000000	
26.000000	
19.000000	
24.000000	
17.000000	
12.000000	
10.000000	
21.000000	
16.000000	
16.000000	
25.000000	
23.000000	
13.000000	
20.000000	
11.000000	
23.000000	
17.000000	
14.000000	
22.000000	
18.000000	
10.000000	
19.000000	
22.000000	
22.000000	
20.000000	
20.000000	
22.000000	
10.000000	
17.000000	
16.000000	
15.000000	
12.000000	
14.000000	
20.000000	
9.000000	
10.000000	
12.000000	
11.000000	
16.000000	
19.000000	
25.000000	
22.000000	
10.000000	
19.000000	
17.000000	
13.000000	
15.000000	
19.000000	
14.000000	
19.000000	
19.000000	
17.000000	
12.000000	
10.000000	
12.000000	
18.000000	
13.000000	
16.000000	
14.000000	
18.000000	
21.000000	
17.000000	
15.000000	
20.000000	
11.000000	
21.000000	
16.000000	
18.000000	
19.000000	
15.000000	
14.000000	
10.000000	
16.000000	
18.000000	
11.000000	
19.000000	
9.000000	
10.000000	
11.000000	
21.000000	
13.000000	
12.000000	
10.000000	
16.000000	
14.000000	
22.000000	
19.000000	
16.000000	
10.000000	
10.000000	
19.000000	
15.000000	
15.000000	
14.000000	
11.000000	
19.000000	
16.000000	
14.000000	
14.000000	
16.000000	
14.000000	
14.000000	
16.000000	
20.000000	
11.000000	
10.000000	
10.000000	
15.000000	
16.000000	
19.000000	
22.000000	
14.000000	
15.000000	
14.000000	
17.000000	
11.000000	
19.000000	
20.000000	
15.000000	
17.000000	
17.000000	
7.000000	
17.000000	
10.000000	
9.000000	
18.000000	
13.000000	
21.000000	
9.000000	
15.000000	
17.000000	
10.000000	
8.000000	
11.000000	
11.000000	
15.000000	
18.000000	
10.000000	
13.000000	
19.000000	
15.000000	
17.000000	
9.000000	
13.000000	
16.000000	
18.000000	
19.000000	
12.000000	
15.000000	
11.000000	
14.000000	
11.000000	
13.000000	
12.000000	
17.000000	
12.000000	
16.000000	
18.000000	
16.000000	
21.000000	
16.000000	
22.000000	
15.000000	
12.000000	
14.000000	
14.000000	
24.000000	
17.000000	
15.000000	
7.000000	
8.000000	
21.000000	
13.000000	
12.000000	
20.000000	
6.000000	
14.000000	
10.000000	
19.000000	
15.000000	
14.000000	
18.000000	
13.000000	
13.000000	
20.000000	
13.000000	
13.000000	
15.000000	
16.000000	
13.000000	
14.000000	
15.000000	
15.000000	
16.000000	
10.000000	
20.000000	
19.000000	
15.000000	
14.000000	
24.000000	
18.000000	
19.000000	
15.000000	
17.000000	
13.000000	
15.000000	
17.000000	
23.000000	
23.000000	
22.000000	
12.000000	
20.000000	
16.000000	
23.000000	
23.000000	
20.000000	
18.000000	
16.000000	
22.000000	
21.000000	
15.000000	
11.000000	
13.000000	
18.000000	
17.000000	
20.000000	
18.000000	
20.000000	
22.000000	
18.000000	
12.000000	
16.000000	
19.000000	
16.000000	
18.000000	
23.000000	
17.000000	
20.000000	
14.000000	
14.000000	
18.000000	
20.000000	
17.000000	
25.000000	
16.000000	
17.000000	
15.000000	
21.000000	
18.000000	
11.000000	
16.000000	
18.000000	
15.000000	
15.000000	
18.000000	
18.000000	
16.000000	
22.000000	
22.000000	
14.000000	
10.000000	
20.000000	
13.000000	
12.000000	
8.000000	
19.000000	
16.000000	
16.000000	
18.000000	
20.000000	
20.000000	
18.000000	
18.000000	
17.000000	
21.000000	
19.000000	
23.000000	
17.000000	
14.000000	
20.000000	
22.000000	
16.000000	
12.000000	
15.000000	
19.000000	
16.000000	
21.000000	
19.000000	
25.000000	
17.000000	
20.000000	
16.000000	
18.000000	
22.000000	
27.000000	
24.000000	
19.000000	
17.000000	
23.000000	
22.000000	
7.000000	
28.000000	
21.000000	
21.000000	
22.000000	
24.000000	
19.000000	
23.000000	
18.000000	
11.000000	
24.000000	
22.000000	
22.000000	
17.000000	
16.000000	
21.000000	
20.000000	
21.000000	
23.000000	
22.000000	
26.000000	
26.000000	
23.000000	
23.000000	
24.000000	
29.000000	
22.000000	
24.000000	
31.000000	
13.000000	
19.000000	
13.000000	
23.000000	
19.000000	
26.000000	
20.000000	
20.000000	
29.000000	
34.000000	
24.000000	
18.000000	
26.000000	
24.000000	
34.000000	
24.000000	
26.000000	
31.000000	
26.000000	
39.000000	
21.000000	
29.000000	
30.000000	
34.000000	
31.000000	
34.000000	
29.000000	
33.000000	
21.000000	
26.000000	
28.000000	
22.000000	
29.000000	
20.000000	
35.000000	
48.000000	
39.000000	
56.000000	
63.000000	
82.000000	
105.000000	
120.000000	
121.000000	
107.000000	
115.000000	
95.000000	
100.000000	
88.000000	
91.000000	
68.000000	
79.000000	
82.000000	
71.000000	
79.000000	
53.000000	
49.000000	
63.000000	
63.000000	
48.000000	
50.000000	
38.000000	
42.000000	
33.000000	
47.000000	
37.000000	
32.000000	
30.000000	
27.000000	
32.000000	
41.000000	
37.000000	
33.000000	
32.000000	
33.000000	
28.000000	
30.000000	
20.000000	
33.000000	
30.000000	
35.000000	
38.000000	
24.000000	
32.000000	
31.000000	
42.000000	
28.000000	
45.000000	
49.000000	
63.000000	
75.000000	
102.000000	
113.000000	
145.000000	
147.000000	
149.000000	
129.000000	
128.000000	
125.000000	
114.000000	
103.000000	
94.000000	
94.000000	
80.000000	
70.000000	
66.000000	
53.000000	
55.000000	
50.000000	
56.000000	
59.000000	
54.000000	
44.000000	
37.000000	
34.000000	
35.000000	
39.000000	
33.000000	
44.000000	
33.000000	
30.000000	
32.000000	
31.000000	
35.000000	
29.000000	
29.000000	
20.000000	
24.000000	
20.000000	
24.000000	
28.000000	
22.000000	
26.000000	
17.000000	
25.000000	
21.000000	
22.000000	
15.000000	
16.000000	
22.000000	
8.000000	
20.000000	
17.000000	
17.000000	
19.000000	
17.000000	
9.000000	
9.000000	
18.000000	
14.000000	
10.000000	
20.000000	
18.000000	
8.000000	
10.000000	
10.000000	
16.000000	
15.000000	
14.000000	
10.000000	
16.000000	
12.000000	
12.000000	
27.000000	
14.000000	
10.000000	
18.000000	
21.000000	
15.000000	
10.000000	
12.000000	
8.000000	
16.000000	
17.000000	
14.000000	
16.000000	
14.000000	
11.000000	
13.000000	
8.000000	
12.000000	
14.000000	
11.000000	
16.000000	
11.000000	
16.000000	
8.000000	
10.000000	
17.000000	
15.000000	
10.000000	
8.000000	
19.000000	
9.000000	
19.000000	
10.000000	
11.000000	
17.000000	
16.000000	
13.000000	
17.000000	
13.000000	
7.000000	
5.000000	
13.000000	
14.000000	
18.000000	
25.000000	
15.000000	
10.000000	
19.000000	
18.000000	
13.000000	
11.000000	
18.000000	
17.000000	
15.000000	
15.000000	
15.000000	
19.000000	
20.000000	
18.000000	
18.000000	
17.000000	
18.000000	
21.000000	
25.000000	
23.000000	
22.000000	
17.000000	
21.000000	
13.000000	
19.000000	
18.000000	
19.000000	
17.000000	
10.000000	
15.000000	
21.000000	
24.000000	
18.000000	
29.000000	
21.000000	
32.000000	
24.000000	
19.000000	
14.000000	
23.000000	
23.000000	
29.000000	
18.000000	
19.000000	
18.000000	
18.000000	
17.000000	
19.000000	
17.000000	
22.000000	
21.000000	
20.000000	
24.000000	
22.000000	
24.000000	
24.000000	
21.000000	
15.000000	
18.000000	
20.000000	
24.000000	
19.000000	
20.000000	
31.000000	
20.000000	
18.000000	
28.000000	
24.000000	
26.000000	
27.000000	
23.000000	
17.000000	
22.000000	
23.000000	
26.000000	
26.000000	
24.000000	
25.000000	
15.000000	
26.000000	
44.000000	
26.000000	
28.000000	
18.000000	
26.000000	
43.000000	
54.000000	
82.000000	
95.000000	
124.000000	
103.000000	
