10.0000 0.878
10.0105 0.756
10.0210 0.899
10.0316 0.654
10.0421 0.858
10.0526 0.858
10.0631 0.919
10.0737 0.746
10.0842 0.899
10.0947 0.797
10.1052 0.848
10.1157 0.950
10.1263 0.899
10.1368 0.970
10.1473 0.837
10.1578 0.786
10.1684 0.919
10.1789 0.991
10.1894 0.807
10.1999 0.725
10.2105 0.940
10.2210 0.837
10.2315 0.899
10.2420 0.970
10.2525 0.827
10.2631 0.919
10.2736 1.042
10.2841 0.827
10.2946 0.919
10.3052 0.766
10.3157 0.807
10.3262 0.817
10.3367 0.807
10.3472 0.868
10.3578 0.929
10.3683 1.011
10.3788 0.899
10.3893 0.878
10.3999 0.674
10.4104 0.919
10.4209 0.960
10.4314 0.766
10.4420 0.797
10.4525 0.837
10.4630 0.940
10.4735 0.746
10.4840 0.776
10.4946 0.960
10.5051 0.837
10.5156 0.950
10.5261 0.940
10.5367 0.991
10.5472 0.715
10.5577 0.746
10.5682 0.776
10.5787 0.766
10.5893 0.899
10.5998 0.786
10.6103 0.858
10.6208 0.858
10.6314 0.899
10.6419 0.725
10.6524 0.858
10.6629 0.776
10.6734 0.756
10.6840 0.715
10.6945 0.848
10.7050 0.888
10.7155 0.797
10.7261 0.776
10.7366 0.817
10.7471 0.735
10.7576 0.817
10.7682 0.827
10.7787 0.735
10.7892 1.001
10.7997 0.786
10.8102 0.940
10.8208 0.817
10.8313 0.827
10.8418 0.746
10.8523 0.888
10.8629 0.858
10.8734 0.827
10.8839 0.725
10.8944 0.715
10.9049 0.919
10.9155 0.797
10.9260 0.807
10.9365 0.684
10.9470 0.807
10.9576 0.848
10.9681 0.746
10.9786 0.970
10.9891 0.909
10.9996 0.603
11.0102 0.613
11.0207 0.786
11.0312 0.756
11.0417 0.929
11.0523 0.694
11.0628 0.633
11.0733 0.858
11.0838 0.837
11.0944 0.837
11.1049 0.470
11.1154 0.837
11.1259 0.766
11.1364 0.919
11.1470 0.746
11.1575 0.878
11.1680 0.756
11.1785 0.766
11.1891 0.746
11.1996 0.735
11.2101 0.848
11.2206 0.837
11.2311 0.848
11.2417 0.786
11.2522 0.878
11.2627 0.746
11.2732 0.715
11.2838 0.848
11.2943 0.664
11.3048 0.725
11.3153 0.684
11.3259 0.674
11.3364 0.940
11.3469 0.654
11.3574 0.786
11.3679 0.766
11.3785 0.960
11.3890 0.684
11.3995 0.797
11.4100 0.572
11.4206 0.633
11.4311 0.623
11.4416 0.899
11.4521 0.858
11.4626 0.807
11.4732 0.858
11.4837 0.756
11.4942 0.694
11.5047 0.899
11.5153 0.715
11.5258 0.664
11.5363 0.837
11.5468 0.776
11.5573 0.603
11.5679 0.643
11.5784 0.705
11.5889 0.643
11.5994 0.817
11.6100 0.592
11.6205 0.694
11.6310 0.807
11.6415 0.940
11.6521 0.725
11.6626 0.562
11.6731 0.786
11.6836 0.776
11.6941 0.888
11.7047 0.684
11.7152 0.684
11.7257 0.827
11.7362 0.633
11.7468 0.705
11.7573 0.705
11.7678 0.694
11.7783 0.899
11.7888 0.633
11.7994 0.715
11.8099 0.786
11.8204 0.684
11.8309 0.623
11.8415 0.613
11.8520 0.654
11.8625 0.776
11.8730 0.705
11.8835 0.684
11.8941 0.725
11.9046 0.776
11.9151 0.725
11.9256 0.643
11.9362 0.746
11.9467 0.592
11.9572 0.715
11.9677 0.643
11.9783 0.715
11.9888 0.715
11.9993 0.654
12.0098 0.562
12.0203 0.756
12.0309 0.664
12.0414 0.756
12.0519 0.674
12.0624 0.603
12.0730 0.705
12.0835 0.694
12.0940 0.684
12.1045 0.827
12.1150 0.684
12.1256 0.592
12.1361 0.858
12.1466 0.766
12.1571 0.715
12.1677 0.705
12.1782 0.603
12.1887 0.511
12.1992 0.572
12.2098 0.664
12.2203 0.766
12.2308 0.735
12.2413 0.715
12.2518 0.572
12.2624 0.582
12.2729 0.664
12.2834 0.623
12.2939 0.654
12.3045 0.633
12.3150 0.715
12.3255 0.684
12.3360 0.674
12.3465 0.817
12.3571 0.766
12.3676 0.603
12.3781 0.654
12.3886 0.582
12.3992 0.756
12.4097 0.603
12.4202 0.603
12.4307 0.633
12.4412 0.725
12.4518 0.643
12.4623 0.603
12.4728 0.643
12.4833 0.623
12.4939 0.756
12.5044 0.715
12.5149 0.654
12.5254 0.684
12.5360 0.551
12.5465 0.613
12.5570 0.694
12.5675 0.694
12.5780 0.654
12.5886 0.521
12.5991 0.786
12.6096 0.572
12.6201 0.643
12.6307 0.572
12.6412 0.817
12.6517 0.531
12.6622 0.654
12.6727 0.735
12.6833 0.603
12.6938 0.715
12.7043 0.613
12.7148 0.674
12.7254 0.551
12.7359 0.654
12.7464 0.746
12.7569 0.674
12.7674 0.633
12.7780 0.766
12.7885 0.460
12.7990 0.776
12.8095 0.623
12.8201 0.654
12.8306 0.500
12.8411 0.633
12.8516 0.480
12.8622 0.643
12.8727 0.603
12.8832 0.807
12.8937 0.490
12.9042 0.643
12.9148 0.613
12.9253 0.449
12.9358 0.500
12.9463 0.766
12.9569 0.786
12.9674 0.684
12.9779 0.551
12.9884 0.705
12.9989 0.654
13.0095 0.521
13.0200 0.694
13.0305 0.603
13.0410 0.888
13.0516 0.643
13.0621 0.592
13.0726 0.715
13.0831 0.613
13.0937 0.511
13.1042 0.470
13.1147 0.613
13.1252 0.868
13.1357 0.674
13.1463 0.797
13.1568 0.613
13.1673 0.511
13.1778 0.551
13.1884 0.490
13.1989 0.562
13.2094 0.551
13.2199 0.654
13.2304 0.664
13.2410 0.613
13.2515 0.715
13.2620 0.633
13.2725 0.613
13.2831 0.531
13.2936 0.664
13.3041 0.623
13.3146 0.633
13.3251 0.684
13.3357 0.439
13.3462 0.735
13.3567 0.633
13.3672 0.613
13.3778 0.521
13.3883 0.633
13.3988 0.541
13.4093 0.531
13.4199 0.592
13.4304 0.521
13.4409 0.643
13.4514 0.654
13.4619 0.664
13.4725 0.684
13.4830 0.603
13.4935 0.674
13.5040 0.562
13.5146 0.429
13.5251 0.603
13.5356 0.623
13.5461 0.500
13.5566 0.551
13.5672 0.705
13.5777 0.654
13.5882 0.531
13.5987 0.603
13.6093 0.531
13.6198 0.643
13.6303 0.480
13.6408 0.551
13.6514 0.490
13.6619 0.664
13.6724 0.746
13.6829 0.511
13.6934 0.654
13.7040 0.654
13.7145 0.551
13.7250 0.500
13.7355 0.725
13.7461 0.654
13.7566 0.654
13.7671 0.511
13.7776 0.521
13.7881 0.521
13.7987 0.582
13.8092 0.398
13.8197 0.449
13.8302 0.694
13.8408 0.470
13.8513 0.541
13.8618 0.674
13.8723 0.551
13.8828 0.592
13.8934 0.541
13.9039 0.603
13.9144 0.541
13.9249 0.521
13.9355 0.572
13.9460 0.521
13.9565 0.470
13.9670 0.500
13.9776 0.613
13.9881 0.511
13.9986 0.623
14.0091 0.582
14.0196 0.531
14.0302 0.470
14.0407 0.715
14.0512 0.643
14.0617 0.582
14.0723 0.654
14.0828 0.623
14.0933 0.541
14.1038 0.633
14.1143 0.551
14.1249 0.480
14.1354 0.684
14.1459 0.592
14.1564 0.531
14.1670 0.592
14.1775 0.592
14.1880 0.541
14.1985 0.572
14.2090 0.500
14.2196 0.582
14.2301 0.511
14.2406 0.613
14.2511 0.643
14.2617 0.490
14.2722 0.480
14.2827 0.500
14.2932 0.684
14.3038 0.633
14.3143 0.521
14.3248 0.378
14.3353 0.439
14.3458 0.541
14.3564 0.592
14.3669 0.582
14.3774 0.521
14.3879 0.582
14.3985 0.633
14.4090 0.592
14.4195 0.521
14.4300 0.449
14.4405 0.613
14.4511 0.572
14.4616 0.664
14.4721 0.521
14.4826 0.408
14.4932 0.603
14.5037 0.531
14.5142 0.551
14.5247 0.643
14.5353 0.470
14.5458 0.429
14.5563 0.562
14.5668 0.592
14.5773 0.521
14.5879 0.623
14.5984 0.500
14.6089 0.521
14.6194 0.470
14.6300 0.603
14.6405 0.582
14.6510 0.439
14.6615 0.521
14.6720 0.531
14.6826 0.511
14.6931 0.531
14.7036 0.490
14.7141 0.623
14.7247 0.521
14.7352 0.562
14.7457 0.643
14.7562 0.603
14.7667 0.654
14.7773 0.623
14.7878 0.592
14.7983 0.582
14.8088 0.572
14.8194 0.572
14.8299 0.551
14.8404 0.521
14.8509 0.490
14.8615 0.633
14.8720 0.388
14.8825 0.551
14.8930 0.511
14.9035 0.480
14.9141 0.603
14.9246 0.449
14.9351 0.439
14.9456 0.460
14.9562 0.551
14.9667 0.592
14.9772 0.500
14.9877 0.357
14.9982 0.408
15.0088 0.551
15.0193 0.541
15.0298 0.572
15.0403 0.470
15.0509 0.623
15.0614 0.500
15.0719 0.490
15.0824 0.490
15.0929 0.490
15.1035 0.623
15.1140 0.562
15.1245 0.511
15.1350 0.715
15.1456 0.541
15.1561 0.613
15.1666 0.582
15.1771 0.480
15.1877 0.378
15.1982 0.572
15.2087 0.531
15.2192 0.511
15.2297 0.470
15.2403 0.623
15.2508 0.562
15.2613 0.654
15.2718 0.725
15.2824 0.398
15.2929 0.705
15.3034 0.562
15.3139 0.562
15.3244 0.643
15.3350 0.439
15.3455 0.500
15.3560 0.429
15.3665 0.490
15.3771 0.388
15.3876 0.470
15.3981 0.449
15.4086 0.654
15.4192 0.419
15.4297 0.541
15.4402 0.654
15.4507 0.470
15.4612 0.419
15.4718 0.429
15.4823 0.551
15.4928 0.398
15.5033 0.572
15.5139 0.511
15.5244 0.511
15.5349 0.500
15.5454 0.480
15.5559 0.460
15.5665 0.562
15.5770 0.592
15.5875 0.490
15.5980 0.511
15.6086 0.449
15.6191 0.531
15.6296 0.439
15.6401 0.541
15.6506 0.531
15.6612 0.460
15.6717 0.511
15.6822 0.531
15.6927 0.664
15.7033 0.582
15.7138 0.643
15.7243 0.613
15.7348 0.562
15.7454 0.480
15.7559 0.541
15.7664 0.531
15.7769 0.439
15.7874 0.470
15.7980 0.500
15.8085 0.490
15.8190 0.500
15.8295 0.500
15.8401 0.470
15.8506 0.551
15.8611 0.582
15.8716 0.572
15.8821 0.408
15.8927 0.439
15.9032 0.572
15.9137 0.429
15.9242 0.521
15.9348 0.460
15.9453 0.439
15.9558 0.541
15.9663 0.419
15.9768 0.613
15.9874 0.449
15.9979 0.623
16.0084 0.541
16.0189 0.480
16.0295 0.511
16.0400 0.347
16.0505 0.521
16.0610 0.460
16.0716 0.500
16.0821 0.592
16.0926 0.449
16.1031 0.531
16.1136 0.511
16.1242 0.460
16.1347 0.541
16.1452 0.511
16.1557 0.490
16.1663 0.562
16.1768 0.449
16.1873 0.470
16.1978 0.531
16.2083 0.429
16.2189 0.480
16.2294 0.449
16.2399 0.357
16.2504 0.449
16.2610 0.480
16.2715 0.531
16.2820 0.449
16.2925 0.551
16.3031 0.439
16.3136 0.511
16.3241 0.531
16.3346 0.684
16.3451 0.337
16.3557 0.480
16.3662 0.419
16.3767 0.541
16.3872 0.511
16.3978 0.460
16.4083 0.460
16.4188 0.460
16.4293 0.460
16.4398 0.521
16.4504 0.500
16.4609 0.419
16.4714 0.531
16.4819 0.521
16.4925 0.388
16.5030 0.500
16.5135 0.347
16.5240 0.500
16.5345 0.562
16.5451 0.398
16.5556 0.480
16.5661 0.449
16.5766 0.511
16.5872 0.572
16.5977 0.419
16.6082 0.419
16.6187 0.531
16.6293 0.408
16.6398 0.674
16.6503 0.470
16.6608 0.460
16.6713 0.572
16.6819 0.531
16.6924 0.490
16.7029 0.603
16.7134 0.623
16.7240 0.531
16.7345 0.511
16.7450 0.470
16.7555 0.521
16.7660 0.419
16.7766 0.592
16.7871 0.480
16.7976 0.480
16.8081 0.388
16.8187 0.531
16.8292 0.541
16.8397 0.592
16.8502 0.603
16.8607 0.551
16.8713 0.408
16.8818 0.654
16.8923 0.531
16.9028 0.521
16.9134 0.551
16.9239 0.623
16.9344 0.623
16.9449 0.705
16.9555 0.684
16.9660 0.603
16.9765 0.837
16.9870 0.848
16.9975 0.500
17.0081 0.694
17.0186 0.776
17.0291 0.991
17.0396 0.919
17.0502 0.991
17.0607 1.225
17.0712 1.164
17.0817 1.246
17.0922 1.573
17.1028 1.838
17.1133 2.063
17.1238 2.553
17.1343 2.788
17.1449 3.135
17.1554 4.065
17.1659 4.657
17.1764 5.392
17.1870 5.811
17.1975 6.965
17.2080 7.731
17.2185 8.150
17.2290 8.170
17.2396 8.854
17.2501 8.435
17.2606 8.068
17.2711 7.190
17.2817 6.505
17.2922 5.382
17.3027 4.565
17.3132 3.809
17.3237 3.145
17.3343 2.625
17.3448 2.614
17.3553 1.685
17.3658 1.828
17.3764 1.542
17.3869 1.195
17.3974 1.195
17.4079 1.052
17.4184 0.858
17.4290 0.899
17.4395 0.837
17.4500 0.766
17.4605 0.837
17.4711 0.664
17.4816 0.613
17.4921 0.643
17.5026 0.613
17.5132 0.613
17.5237 0.623
17.5342 0.613
17.5447 0.582
17.5552 0.582
17.5658 0.582
17.5763 0.480
17.5868 0.603
17.5973 0.633
17.6079 0.480
17.6184 0.439
17.6289 0.531
17.6394 0.603
17.6499 0.470
17.6605 0.490
17.6710 0.429
17.6815 0.582
17.6920 0.480
17.7026 0.378
17.7131 0.470
17.7236 0.439
17.7341 0.460
17.7447 0.429
17.7552 0.531
17.7657 0.449
17.7762 0.643
17.7867 0.511
17.7973 0.572
17.8078 0.368
17.8183 0.429
17.8288 0.470
17.8394 0.408
17.8499 0.449
17.8604 0.439
17.8709 0.408
17.8814 0.511
17.8920 0.419
17.9025 0.460
17.9130 0.582
17.9235 0.562
17.9341 0.419
17.9446 0.347
17.9551 0.511
17.9656 0.306
17.9761 0.439
17.9867 0.541
17.9972 0.613
18.0077 0.541
18.0182 0.480
18.0288 0.357
18.0393 0.449
18.0498 0.500
18.0603 0.388
18.0709 0.551
18.0814 0.439
18.0919 0.368
18.1024 0.449
18.1129 0.490
18.1235 0.511
18.1340 0.480
18.1445 0.490
18.1550 0.368
18.1656 0.378
18.1761 0.306
18.1866 0.470
18.1971 0.541
18.2076 0.419
18.2182 0.439
18.2287 0.429
18.2392 0.511
18.2497 0.398
18.2603 0.470
18.2708 0.398
18.2813 0.429
18.2918 0.490
18.3023 0.480
18.3129 0.449
18.3234 0.449
18.3339 0.470
18.3444 0.378
18.3550 0.439
18.3655 0.388
18.3760 0.408
18.3865 0.296
18.3971 0.470
18.4076 0.388
18.4181 0.388
18.4286 0.541
18.4391 0.480
18.4497 0.368
18.4602 0.368
18.4707 0.378
18.4812 0.327
18.4918 0.347
18.5023 0.460
18.5128 0.480
18.5233 0.378
18.5338 0.357
18.5444 0.306
18.5549 0.490
18.5654 0.357
18.5759 0.357
18.5865 0.398
18.5970 0.337
18.6075 0.388
18.6180 0.582
18.6286 0.429
18.6391 0.398
18.6496 0.388
18.6601 0.347
18.6706 0.306
18.6812 0.419
18.6917 0.429
18.7022 0.378
18.7127 0.511
18.7233 0.378
18.7338 0.327
18.7443 0.388
18.7548 0.449
18.7653 0.398
18.7759 0.408
18.7864 0.419
18.7969 0.347
18.8074 0.419
18.8180 0.378
18.8285 0.449
18.8390 0.490
18.8495 0.470
18.8600 0.429
18.8706 0.480
18.8811 0.388
18.8916 0.347
18.9021 0.357
18.9127 0.357
18.9232 0.674
18.9337 0.490
18.9442 0.419
18.9548 0.480
18.9653 0.521
18.9758 0.500
18.9863 0.460
18.9968 0.235
19.0074 0.398
19.0179 0.521
19.0284 0.490
19.0389 0.398
19.0495 0.429
19.0600 0.317
19.0705 0.398
19.0810 0.378
19.0915 0.378
19.1021 0.276
19.1126 0.357
19.1231 0.337
19.1336 0.378
19.1442 0.398
19.1547 0.347
19.1652 0.439
19.1757 0.347
19.1862 0.408
19.1968 0.439
19.2073 0.490
19.2178 0.490
19.2283 0.429
19.2389 0.408
19.2494 0.419
19.2599 0.429
19.2704 0.388
19.2810 0.286
19.2915 0.378
19.3020 0.357
19.3125 0.327
19.3230 0.398
19.3336 0.470
19.3441 0.388
19.3546 0.368
19.3651 0.378
19.3757 0.337
19.3862 0.378
19.3967 0.531
19.4072 0.470
19.4177 0.368
19.4283 0.419
19.4388 0.470
19.4493 0.337
19.4598 0.357
19.4704 0.541
19.4809 0.327
19.4914 0.429
19.5019 0.398
19.5125 0.337
19.5230 0.317
19.5335 0.357
19.5440 0.419
19.5545 0.357
19.5651 0.439
19.5756 0.255
19.5861 0.398
19.5966 0.306
19.6072 0.317
19.6177 0.378
19.6282 0.347
19.6387 0.266
19.6492 0.255
19.6598 0.327
19.6703 0.449
19.6808 0.388
19.6913 0.429
19.7019 0.541
19.7124 0.378
19.7229 0.378
19.7334 0.398
19.7439 0.408
19.7545 0.378
19.7650 0.521
19.7755 0.460
19.7860 0.378
19.7966 0.439
19.8071 0.398
19.8176 0.429
19.8281 0.368
19.8387 0.347
19.8492 0.480
19.8597 0.439
19.8702 0.276
19.8807 0.460
19.8913 0.388
19.9018 0.460
19.9123 0.500
19.9228 0.398
19.9334 0.337
19.9439 0.439
19.9544 0.470
19.9649 0.439
19.9754 0.439
19.9860 0.347
19.9965 0.408
20.0070 0.541
20.0175 0.429
20.0281 0.378
20.0386 0.368
20.0491 0.460
20.0596 0.368
20.0701 0.460
20.0807 0.439
20.0912 0.429
20.1017 0.347
20.1122 0.439
20.1228 0.439
20.1333 0.541
20.1438 0.500
20.1543 0.408
20.1649 0.235
20.1754 0.327
20.1859 0.419
20.1964 0.603
20.2069 0.398
20.2175 0.429
20.2280 0.378
20.2385 0.347
20.2490 0.327
20.2596 0.531
20.2701 0.388
20.2806 0.439
20.2911 0.521
20.3016 0.470
20.3122 0.531
20.3227 0.439
20.3332 0.388
20.3437 0.347
20.3543 0.541
20.3648 0.357
20.3753 0.460
20.3858 0.490
20.3964 0.551
20.4069 0.511
20.4174 0.582
20.4279 0.357
20.4384 0.439
20.4490 0.470
20.4595 0.562
20.4700 0.470
20.4805 0.582
20.4911 0.419
20.5016 0.460
20.5121 0.480
20.5226 0.705
20.5331 0.694
20.5437 0.521
20.5542 0.623
20.5647 0.766
20.5752 0.766
20.5858 0.756
20.5963 0.858
20.6068 0.848
20.6173 1.042
20.6278 0.970
20.6384 1.185
20.6489 1.246
20.6594 1.614
20.6699 1.859
20.6805 1.910
20.6910 2.124
20.7015 2.471
20.7120 3.094
20.7226 3.370
20.7331 4.248
20.7436 5.035
20.7541 5.862
20.7646 6.842
20.7752 8.415
20.7857 9.528
20.7962 11.060
20.8067 12.204
20.8173 13.317
20.8278 14.348
20.8383 13.889
20.8488 14.522
20.8593 13.440
20.8699 12.520
20.8804 11.275
20.8909 10.498
20.9014 7.966
20.9120 7.241
20.9225 5.382
20.9330 4.759
20.9435 4.034
20.9541 3.064
20.9646 2.972
20.9751 2.134
20.9856 2.339
20.9961 1.644
21.0067 1.848
21.0172 1.297
21.0277 1.409
21.0382 1.215
21.0488 1.246
21.0593 1.083
21.0698 1.123
21.0803 0.725
21.0908 0.817
21.1014 0.868
21.1119 0.623
21.1224 0.592
21.1329 0.664
21.1435 0.592
21.1540 0.684
21.1645 0.562
21.1750 0.562
21.1855 0.603
21.1961 0.613
21.2066 0.603
21.2171 0.357
21.2276 0.500
21.2382 0.480
21.2487 0.572
21.2592 0.521
21.2697 0.490
21.2803 0.408
21.2908 0.368
21.3013 0.460
21.3118 0.408
21.3223 0.357
21.3329 0.419
21.3434 0.419
21.3539 0.388
21.3644 0.490
21.3750 0.439
21.3855 0.511
21.3960 0.388
21.4065 0.460
21.4170 0.347
21.4276 0.449
21.4381 0.317
21.4486 0.347
21.4591 0.408
21.4697 0.521
21.4802 0.327
21.4907 0.551
21.5012 0.480
21.5117 0.337
21.5223 0.317
21.5328 0.398
21.5433 0.531
21.5538 0.347
21.5644 0.327
21.5749 0.398
21.5854 0.460
21.5959 0.368
21.6065 0.398
21.6170 0.408
21.6275 0.368
21.6380 0.347
21.6485 0.500
21.6591 0.327
21.6696 0.347
21.6801 0.368
21.6906 0.347
21.7012 0.255
21.7117 0.449
21.7222 0.419
21.7327 0.296
21.7432 0.449
21.7538 0.429
21.7643 0.317
21.7748 0.296
21.7853 0.255
21.7959 0.368
21.8064 0.480
21.8169 0.317
21.8274 0.296
21.8380 0.225
21.8485 0.408
21.8590 0.511
21.8695 0.551
21.8800 0.378
21.8906 0.357
21.9011 0.296
21.9116 0.286
21.9221 0.317
21.9327 0.163
21.9432 0.347
21.9537 0.296
21.9642 0.388
21.9747 0.337
21.9853 0.368
21.9958 0.460
22.0063 0.388
22.0168 0.388
22.0274 0.398
22.0379 0.378
22.0484 0.378
22.0589 0.255
22.0694 0.439
22.0800 0.337
22.0905 0.347
22.1010 0.347
22.1115 0.419
22.1221 0.388
22.1326 0.337
22.1431 0.368
22.1536 0.398
22.1642 0.357
22.1747 0.429
22.1852 0.398
22.1957 0.378
22.2062 0.408
22.2168 0.337
22.2273 0.255
22.2378 0.408
22.2483 0.511
22.2589 0.429
22.2694 0.378
22.2799 0.327
22.2904 0.398
22.3009 0.347
22.3115 0.317
22.3220 0.419
22.3325 0.368
22.3430 0.439
22.3536 0.337
22.3641 0.388
22.3746 0.521
22.3851 0.408
22.3956 0.368
22.4062 0.357
22.4167 0.398
22.4272 0.347
22.4377 0.551
22.4483 0.511
22.4588 0.460
22.4693 0.490
22.4798 0.521
22.4904 0.531
22.5009 0.449
22.5114 0.562
22.5219 0.521
22.5324 0.674
22.5430 0.654
22.5535 0.694
22.5640 0.511
22.5745 0.572
22.5851 0.878
22.5956 0.899
22.6061 0.980
22.6166 1.011
22.6271 1.205
22.6377 1.246
22.6482 1.440
22.6587 1.256
22.6692 1.910
22.6798 1.910
22.6903 2.410
22.7008 2.574
22.7113 2.931
22.7219 3.585
22.7324 4.228
22.7429 4.391
22.7534 4.718
22.7639 5.219
22.7745 5.055
22.7850 5.147
22.7955 5.351
22.8060 4.984
22.8166 5.178
22.8271 4.187
22.8376 4.075
22.8481 3.421
22.8586 3.043
22.8692 2.757
22.8797 2.574
22.8902 1.920
22.9007 1.532
22.9113 1.481
22.9218 1.358
22.9323 1.062
22.9428 0.991
22.9533 0.899
22.9639 0.786
22.9744 0.786
22.9849 0.735
22.9954 0.715
23.0060 0.674
23.0165 0.633
23.0270 0.766
23.0375 0.664
23.0481 0.490
23.0586 0.715
23.0691 0.551
23.0796 0.623
23.0901 0.470
23.1007 0.357
23.1112 0.408
23.1217 0.480
23.1322 0.449
23.1428 0.511
23.1533 0.398
23.1638 0.541
23.1743 0.306
23.1848 0.470
23.1954 0.460
23.2059 0.368
23.2164 0.511
23.2269 0.266
23.2375 0.398
23.2480 0.337
23.2585 0.378
23.2690 0.429
23.2795 0.419
23.2901 0.511
23.3006 0.398
23.3111 0.317
23.3216 0.347
23.3322 0.449
23.3427 0.449
23.3532 0.419
23.3637 0.429
23.3743 0.266
23.3848 0.398
23.3953 0.408
23.4058 0.306
23.4163 0.296
23.4269 0.449
23.4374 0.327
23.4479 0.460
23.4584 0.286
23.4690 0.419
23.4795 0.296
23.4900 0.398
23.5005 0.357
23.5110 0.306
23.5216 0.317
23.5321 0.296
23.5426 0.327
23.5531 0.480
23.5637 0.480
23.5742 0.337
23.5847 0.368
23.5952 0.357
23.6058 0.337
23.6163 0.357
23.6268 0.347
23.6373 0.337
23.6478 0.419
23.6584 0.327
23.6689 0.296
23.6794 0.419
23.6899 0.306
23.7005 0.521
23.7110 0.255
23.7215 0.347
23.7320 0.398
23.7425 0.286
23.7531 0.306
23.7636 0.337
23.7741 0.368
23.7846 0.368
23.7952 0.368
23.8057 0.490
23.8162 0.388
23.8267 0.470
23.8372 0.429
23.8478 0.408
23.8583 0.327
23.8688 0.398
23.8793 0.408
23.8899 0.347
23.9004 0.511
23.9109 0.408
23.9214 0.511
23.9320 0.398
23.9425 0.521
23.9530 0.470
23.9635 0.460
23.9740 0.756
23.9846 0.613
23.9951 0.797
24.0056 0.868
24.0161 0.817
24.0267 1.021
24.0372 1.154
24.0477 1.154
24.0582 1.236
24.0687 1.532
24.0793 1.665
24.0898 1.573
24.1003 2.104
24.1108 1.757
24.1214 1.869
24.1319 1.767
24.1424 1.920
24.1529 1.828
24.1635 1.910
24.1740 1.471
24.1845 1.634
24.1950 1.358
24.2055 1.481
24.2161 1.236
24.2266 1.031
24.2371 0.827
24.2476 0.807
24.2582 0.848
24.2687 0.848
24.2792 0.674
24.2897 0.490
24.3002 0.511
24.3108 0.531
24.3213 0.408
24.3318 0.531
24.3423 0.388
24.3529 0.439
24.3634 0.480
24.3739 0.449
24.3844 0.347
24.3949 0.460
24.4055 0.276
24.4160 0.480
24.4265 0.551
24.4370 0.388
24.4476 0.429
24.4581 0.388
24.4686 0.327
24.4791 0.408
24.4897 0.449
24.5002 0.378
24.5107 0.408
24.5212 0.368
24.5317 0.419
24.5423 0.357
24.5528 0.357
24.5633 0.317
24.5738 0.317
24.5844 0.337
24.5949 0.460
24.6054 0.317
24.6159 0.419
24.6264 0.378
24.6370 0.337
24.6475 0.388
24.6580 0.337
24.6685 0.327
24.6791 0.276
24.6896 0.306
24.7001 0.296
24.7106 0.337
24.7211 0.357
24.7317 0.368
24.7422 0.357
24.7527 0.286
24.7632 0.327
24.7738 0.388
24.7843 0.439
24.7948 0.398
24.8053 0.408
24.8159 0.419
24.8264 0.306
24.8369 0.378
24.8474 0.500
24.8579 0.306
24.8685 0.255
24.8790 0.337
24.8895 0.347
24.9000 0.398
24.9106 0.286
24.9211 0.327
24.9316 0.317
24.9421 0.368
24.9526 0.327
24.9632 0.286
24.9737 0.419
24.9842 0.368
24.9947 0.368
25.0053 0.388
25.0158 0.327
25.0263 0.470
25.0368 0.460
25.0474 0.439
25.0579 0.408
25.0684 0.500
25.0789 0.357
25.0894 0.419
25.1000 0.327
25.1105 0.337
25.1210 0.337
25.1315 0.398
25.1421 0.500
25.1526 0.592
25.1631 0.490
25.1736 0.521
25.1841 0.674
25.1947 0.480
25.2052 0.419
25.2157 0.592
25.2262 0.705
25.2368 0.470
25.2473 0.551
25.2578 0.541
25.2683 0.490
25.2788 0.572
25.2894 0.725
25.2999 0.603
25.3104 0.868
25.3209 0.899
25.3315 0.766
25.3420 1.011
25.3525 0.868
25.3630 0.950
25.3736 0.970
25.3841 0.970
25.3946 0.929
25.4051 1.307
25.4156 1.307
25.4262 1.246
25.4367 1.777
25.4472 1.961
25.4577 2.032
25.4683 2.124
25.4788 2.737
25.4893 2.788
25.4998 3.339
25.5103 4.299
25.5209 3.748
25.5314 5.556
25.5419 5.678
25.5524 7.138
25.5630 7.833
25.5735 10.029
25.5840 10.795
25.5945 12.173
25.6050 12.970
25.6156 14.318
25.6261 16.054
25.6366 17.085
25.6471 17.637
25.6577 17.759
25.6682 16.840
25.6787 17.341
25.6892 16.258
25.6998 14.716
25.7103 13.817
25.7208 11.949
25.7313 10.335
25.7418 9.436
25.7524 7.823
25.7629 7.067
25.7734 6.097
25.7839 4.728
25.7945 4.565
25.8050 3.932
25.8155 3.258
25.8260 2.696
25.8365 2.492
25.8471 2.277
25.8576 2.022
25.8681 1.920
25.8786 1.501
25.8892 1.379
25.8997 1.236
25.9102 1.042
25.9207 1.348
25.9313 1.083
25.9418 1.042
25.9523 1.021
25.9628 0.878
25.9733 0.888
25.9839 0.848
25.9944 0.603
26.0049 0.684
26.0154 0.592
26.0260 0.562
26.0365 0.643
26.0470 0.582
26.0575 0.582
26.0680 0.562
26.0786 0.633
26.0891 0.419
26.0996 0.582
26.1101 0.470
26.1207 0.419
26.1312 0.470
26.1417 0.460
26.1522 0.460
26.1627 0.480
26.1733 0.429
26.1838 0.429
26.1943 0.603
26.2048 0.480
26.2154 0.592
26.2259 0.398
26.2364 0.460
26.2469 0.368
26.2575 0.470
26.2680 0.378
26.2785 0.429
26.2890 0.327
26.2995 0.286
26.3101 0.337
26.3206 0.398
26.3311 0.245
26.3416 0.480
26.3522 0.388
26.3627 0.408
26.3732 0.388
26.3837 0.327
26.3942 0.439
26.4048 0.429
26.4153 0.306
26.4258 0.337
26.4363 0.357
26.4469 0.245
26.4574 0.357
26.4679 0.388
26.4784 0.245
26.4889 0.317
26.4995 0.276
26.5100 0.357
26.5205 0.327
26.5310 0.276
26.5416 0.368
26.5521 0.378
26.5626 0.347
26.5731 0.306
26.5837 0.327
26.5942 0.419
26.6047 0.408
26.6152 0.255
26.6257 0.357
26.6363 0.327
26.6468 0.306
26.6573 0.286
26.6678 0.388
26.6784 0.245
26.6889 0.327
26.6994 0.419
26.7099 0.398
26.7204 0.317
26.7310 0.368
26.7415 0.347
26.7520 0.388
26.7625 0.439
26.7731 0.317
26.7836 0.337
26.7941 0.337
26.8046 0.429
26.8152 0.327
26.8257 0.286
26.8362 0.296
26.8467 0.296
26.8572 0.337
26.8678 0.449
26.8783 0.286
26.8888 0.245
26.8993 0.306
26.9099 0.347
26.9204 0.255
26.9309 0.214
26.9414 0.214
26.9519 0.306
26.9625 0.388
26.9730 0.306
26.9835 0.255
26.9940 0.225
27.0046 0.327
27.0151 0.306
27.0256 0.337
27.0361 0.266
27.0466 0.378
27.0572 0.337
27.0677 0.225
27.0782 0.276
27.0887 0.235
27.0993 0.296
27.1098 0.419
27.1203 0.408
27.1308 0.306
27.1414 0.255
27.1519 0.408
27.1624 0.327
27.1729 0.378
27.1834 0.276
27.1940 0.368
27.2045 0.347
27.2150 0.276
27.2255 0.306
27.2361 0.347
27.2466 0.408
27.2571 0.286
27.2676 0.317
27.2781 0.276
27.2887 0.286
27.2992 0.276
27.3097 0.317
27.3202 0.296
27.3308 0.378
27.3413 0.460
27.3518 0.378
27.3623 0.204
27.3728 0.357
27.3834 0.357
27.3939 0.347
27.4044 0.317
27.4149 0.337
27.4255 0.337
27.4360 0.194
27.4465 0.357
27.4570 0.368
27.4676 0.317
27.4781 0.255
27.4886 0.286
27.4991 0.255
27.5096 0.408
27.5202 0.327
27.5307 0.286
27.5412 0.347
27.5517 0.306
27.5623 0.327
27.5728 0.266
27.5833 0.296
27.5938 0.286
27.6043 0.296
27.6149 0.347
27.6254 0.266
27.6359 0.337
27.6464 0.337
27.6570 0.347
27.6675 0.347
27.6780 0.357
27.6885 0.327
27.6991 0.296
27.7096 0.286
27.7201 0.296
27.7306 0.378
27.7411 0.378
27.7517 0.327
27.7622 0.286
27.7727 0.306
27.7832 0.286
27.7938 0.327
27.8043 0.317
27.8148 0.245
27.8253 0.266
27.8358 0.337
27.8464 0.255
27.8569 0.296
27.8674 0.225
27.8779 0.204
27.8885 0.245
27.8990 0.276
27.9095 0.296
27.9200 0.337
27.9305 0.388
27.9411 0.225
27.9516 0.306
27.9621 0.266
27.9726 0.368
27.9832 0.204
27.9937 0.306
28.0042 0.276
28.0147 0.245
28.0253 0.327
28.0358 0.235
28.0463 0.337
28.0568 0.306
28.0673 0.163
28.0779 0.306
28.0884 0.225
28.0989 0.245
28.1094 0.337
28.1200 0.276
28.1305 0.266
28.1410 0.245
28.1515 0.327
28.1620 0.286
28.1726 0.266
28.1831 0.296
28.1936 0.388
28.2041 0.357
28.2147 0.266
28.2252 0.286
28.2357 0.337
28.2462 0.286
28.2568 0.398
28.2673 0.357
28.2778 0.266
28.2883 0.429
28.2988 0.235
28.3094 0.255
28.3199 0.357
28.3304 0.286
28.3409 0.368
28.3515 0.317
28.3620 0.449
28.3725 0.368
28.3830 0.204
28.3935 0.388
28.4041 0.266
28.4146 0.286
28.4251 0.378
28.4356 0.306
28.4462 0.255
28.4567 0.245
28.4672 0.286
28.4777 0.368
28.4882 0.317
28.4988 0.235
28.5093 0.184
28.5198 0.357
28.5303 0.306
28.5409 0.357
28.5514 0.357
28.5619 0.347
28.5724 0.204
28.5830 0.347
28.5935 0.235
28.6040 0.378
28.6145 0.398
28.6250 0.368
28.6356 0.306
28.6461 0.317
28.6566 0.378
28.6671 0.337
28.6777 0.245
28.6882 0.276
28.6987 0.286
28.7092 0.266
28.7197 0.347
28.7303 0.306
28.7408 0.347
28.7513 0.429
28.7618 0.408
28.7724 0.276
28.7829 0.388
28.7934 0.296
28.8039 0.255
28.8144 0.296
28.8250 0.204
28.8355 0.317
28.8460 0.327
28.8565 0.327
28.8671 0.245
28.8776 0.368
28.8881 0.388
28.8986 0.266
28.9092 0.296
28.9197 0.306
28.9302 0.378
28.9407 0.245
28.9512 0.317
28.9618 0.368
28.9723 0.337
28.9828 0.327
28.9933 0.286
29.0039 0.276
29.0144 0.388
29.0249 0.419
29.0354 0.357
29.0459 0.317
29.0565 0.357
29.0670 0.378
29.0775 0.357
29.0880 0.388
29.0986 0.368
29.1091 0.408
29.1196 0.245
29.1301 0.306
29.1407 0.439
29.1512 0.408
29.1617 0.378
29.1722 0.429
29.1827 0.408
29.1933 0.368
29.2038 0.357
29.2143 0.429
29.2248 0.357
29.2354 0.327
29.2459 0.439
29.2564 0.378
29.2669 0.490
29.2774 0.378
29.2880 0.419
29.2985 0.408
29.3090 0.429
29.3195 0.449
29.3301 0.460
29.3406 0.460
29.3511 0.480
29.3616 0.603
29.3721 0.460
29.3827 0.541
29.3932 0.562
29.4037 0.511
29.4142 0.725
29.4248 0.603
29.4353 0.715
29.4458 0.511
29.4563 0.592
29.4669 0.715
29.4774 0.868
29.4879 0.654
29.4984 0.766
29.5089 1.031
29.5195 0.868
29.5300 0.940
29.5405 1.225
29.5510 1.083
29.5616 1.256
29.5721 1.277
29.5826 1.440
29.5931 1.491
29.6036 1.930
29.6142 1.879
29.6247 1.920
29.6352 2.482
29.6457 2.625
29.6563 2.625
29.6668 3.258
29.6773 3.421
29.6878 4.075
29.6983 5.035
29.7089 5.147
29.7194 6.179
29.7299 6.567
29.7404 7.149
29.7510 7.945
29.7615 9.824
29.7720 10.039
29.7825 10.938
29.7931 11.949
29.8036 12.051
29.8141 13.246
29.8246 14.001
29.8351 14.022
29.8457 13.644
29.8562 13.879
29.8667 13.695
29.8772 13.664
29.8878 12.970
29.8983 12.388
29.9088 11.121
29.9193 9.569
29.9298 9.355
29.9404 8.364
29.9509 6.812
29.9614 6.710
29.9719 6.107
29.9825 4.912
29.9930 4.320
30.0035 3.962
30.0140 3.237
30.0246 2.870
30.0351 2.512
30.0456 2.318
30.0561 2.165
30.0666 1.910
30.0772 1.654
30.0877 1.399
30.0982 1.277
30.1087 0.960
30.1193 1.471
30.1298 0.919
30.1403 0.950
30.1508 0.991
30.1613 0.940
30.1719 0.746
30.1824 0.623
30.1929 0.664
30.2034 0.746
30.2140 0.562
30.2245 0.582
30.2350 0.357
30.2455 0.603
30.2560 0.531
30.2666 0.592
30.2771 0.429
30.2876 0.551
30.2981 0.541
30.3087 0.419
30.3192 0.266
30.3297 0.470
30.3402 0.490
30.3508 0.439
30.3613 0.378
30.3718 0.460
30.3823 0.327
30.3928 0.490
30.4034 0.419
30.4139 0.286
30.4244 0.296
30.4349 0.286
30.4455 0.357
30.4560 0.388
30.4665 0.317
30.4770 0.337
30.4875 0.286
30.4981 0.225
30.5086 0.317
30.5191 0.347
30.5296 0.337
30.5402 0.317
30.5507 0.184
30.5612 0.378
30.5717 0.286
30.5822 0.255
30.5928 0.378
30.6033 0.276
30.6138 0.378
30.6243 0.327
30.6349 0.276
30.6454 0.317
30.6559 0.214
30.6664 0.337
30.6770 0.347
30.6875 0.296
30.6980 0.327
30.7085 0.378
30.7190 0.317
30.7296 0.286
30.7401 0.327
30.7506 0.204
30.7611 0.255
30.7717 0.225
30.7822 0.368
30.7927 0.286
30.8032 0.163
30.8137 0.317
30.8243 0.306
30.8348 0.337
30.8453 0.235
30.8558 0.347
30.8664 0.296
30.8769 0.255
30.8874 0.276
30.8979 0.296
30.9085 0.255
30.9190 0.266
30.9295 0.255
30.9400 0.327
30.9505 0.266
30.9611 0.317
30.9716 0.337
30.9821 0.235
30.9926 0.337
31.0032 0.378
31.0137 0.327
31.0242 0.235
31.0347 0.357
31.0452 0.276
31.0558 0.266
31.0663 0.347
31.0768 0.225
31.0873 0.306
31.0979 0.296
31.1084 0.368
31.1189 0.347
31.1294 0.204
31.1399 0.306
31.1505 0.306
31.1610 0.337
31.1715 0.266
31.1820 0.347
31.1926 0.296
31.2031 0.255
31.2136 0.235
31.2241 0.245
31.2347 0.317
31.2452 0.306
31.2557 0.296
31.2662 0.266
31.2767 0.327
31.2873 0.245
31.2978 0.245
31.3083 0.214
31.3188 0.276
31.3294 0.327
31.3399 0.163
31.3504 0.266
31.3609 0.214
31.3714 0.286
31.3820 0.317
31.3925 0.276
31.4030 0.286
31.4135 0.449
31.4241 0.306
31.4346 0.306
31.4451 0.317
31.4556 0.286
31.4662 0.194
31.4767 0.235
31.4872 0.337
31.4977 0.296
31.5082 0.306
31.5188 0.327
31.5293 0.337
31.5398 0.286
31.5503 0.327
31.5609 0.368
31.5714 0.266
31.5819 0.306
31.5924 0.368
31.6029 0.194
31.6135 0.286
31.6240 0.266
31.6345 0.276
31.6450 0.245
31.6556 0.357
31.6661 0.317
31.6766 0.317
31.6871 0.296
31.6976 0.327
31.7082 0.296
31.7187 0.327
31.7292 0.245
31.7397 0.317
31.7503 0.255
31.7608 0.378
31.7713 0.255
31.7818 0.276
31.7924 0.388
31.8029 0.337
31.8134 0.184
31.8239 0.296
31.8344 0.357
31.8450 0.327
31.8555 0.286
31.8660 0.337
31.8765 0.286
31.8871 0.296
31.8976 0.419
31.9081 0.347
31.9186 0.306
31.9291 0.388
31.9397 0.347
31.9502 0.490
31.9607 0.439
31.9712 0.378
31.9818 0.408
31.9923 0.429
32.0028 0.490
32.0133 0.449
32.0238 0.582
32.0344 0.541
32.0449 0.500
32.0554 0.613
32.0659 0.694
32.0765 0.694
32.0870 0.848
32.0975 0.837
32.1080 1.011
32.1186 1.123
32.1291 1.328
32.1396 1.603
32.1501 1.236
32.1606 1.818
32.1712 1.889
32.1817 2.104
32.1922 2.625
32.2027 2.890
32.2133 3.472
32.2238 4.259
32.2343 4.769
32.2448 4.922
32.2553 5.229
32.2659 6.679
32.2764 6.383
32.2869 6.618
32.2974 6.567
32.3080 6.444
32.3185 6.270
32.3290 5.719
32.3395 5.392
32.3501 5.004
32.3606 3.881
32.3711 3.789
32.3816 3.054
32.3921 2.594
32.4027 2.553
32.4132 2.451
32.4237 2.022
32.4342 1.644
32.4448 1.399
32.4553 1.225
32.4658 1.164
32.4763 1.225
32.4868 1.072
32.4974 1.113
32.5079 0.725
32.5184 0.664
32.5289 0.694
32.5395 0.746
32.5500 0.582
32.5605 0.592
32.5710 0.480
32.5815 0.572
32.5921 0.511
32.6026 0.429
32.6131 0.388
32.6236 0.521
32.6342 0.368
32.6447 0.480
32.6552 0.276
32.6657 0.388
32.6763 0.337
32.6868 0.368
32.6973 0.255
32.7078 0.225
32.7183 0.276
32.7289 0.378
32.7394 0.398
32.7499 0.296
32.7604 0.327
32.7710 0.327
32.7815 0.306
32.7920 0.286
32.8025 0.347
32.8130 0.225
32.8236 0.245
32.8341 0.286
32.8446 0.296
32.8551 0.317
32.8657 0.306
32.8762 0.306
32.8867 0.276
32.8972 0.327
32.9077 0.214
32.9183 0.255
32.9288 0.286
32.9393 0.245
32.9498 0.266
32.9604 0.368
32.9709 0.337
32.9814 0.347
32.9919 0.266
33.0025 0.266
33.0130 0.204
33.0235 0.235
33.0340 0.368
33.0445 0.255
33.0551 0.163
33.0656 0.225
33.0761 0.317
33.0866 0.317
33.0972 0.266
33.1077 0.317
33.1182 0.255
33.1287 0.357
33.1392 0.235
33.1498 0.245
33.1603 0.266
33.1708 0.245
33.1813 0.204
33.1919 0.245
33.2024 0.235
33.2129 0.235
33.2234 0.266
33.2340 0.286
33.2445 0.194
33.2550 0.266
33.2655 0.286
33.2760 0.225
33.2866 0.306
33.2971 0.214
33.3076 0.194
33.3181 0.266
33.3287 0.194
33.3392 0.153
33.3497 0.214
33.3602 0.225
33.3707 0.194
33.3813 0.245
33.3918 0.225
33.4023 0.214
33.4128 0.296
33.4234 0.214
33.4339 0.296
33.4444 0.266
33.4549 0.204
33.4654 0.214
33.4760 0.235
33.4865 0.255
33.4970 0.327
33.5075 0.235
33.5181 0.276
33.5286 0.235
33.5391 0.317
33.5496 0.317
33.5602 0.184
33.5707 0.245
33.5812 0.317
33.5917 0.255
33.6022 0.276
33.6128 0.245
33.6233 0.184
33.6338 0.235
33.6443 0.235
33.6549 0.235
33.6654 0.214
33.6759 0.266
33.6864 0.245
33.6969 0.255
33.7075 0.245
33.7180 0.286
33.7285 0.327
33.7390 0.327
33.7496 0.245
33.7601 0.235
33.7706 0.184
33.7811 0.214
33.7916 0.317
33.8022 0.276
33.8127 0.255
33.8232 0.276
33.8337 0.153
33.8443 0.214
33.8548 0.296
33.8653 0.235
33.8758 0.327
33.8864 0.266
33.8969 0.174
33.9074 0.174
33.9179 0.327
33.9284 0.225
33.9390 0.194
33.9495 0.296
33.9600 0.255
33.9705 0.225
33.9811 0.317
33.9916 0.317
34.0021 0.235
34.0126 0.306
34.0231 0.286
34.0337 0.235
34.0442 0.245
34.0547 0.276
34.0652 0.337
34.0758 0.317
34.0863 0.225
34.0968 0.194
34.1073 0.194
34.1179 0.266
34.1284 0.327
34.1389 0.143
34.1494 0.306
34.1599 0.204
34.1705 0.194
34.1810 0.194
34.1915 0.184
34.2020 0.317
34.2126 0.296
34.2231 0.225
34.2336 0.235
34.2441 0.378
34.2546 0.276
34.2652 0.214
34.2757 0.255
34.2862 0.245
34.2967 0.296
34.3073 0.368
34.3178 0.245
34.3283 0.194
34.3388 0.245
34.3493 0.276
34.3599 0.388
34.3704 0.255
34.3809 0.388
34.3914 0.357
34.4020 0.225
34.4125 0.317
34.4230 0.286
34.4335 0.306
34.4441 0.337
34.4546 0.255
34.4651 0.317
34.4756 0.337
34.4861 0.347
34.4967 0.296
34.5072 0.368
34.5177 0.408
34.5282 0.429
34.5388 0.460
34.5493 0.470
34.5598 0.388
34.5703 0.398
34.5808 0.480
34.5914 0.521
34.6019 0.633
34.6124 0.603
34.6229 0.725
34.6335 0.613
34.6440 0.654
34.6545 0.776
34.6650 0.643
34.6756 0.613
34.6861 0.735
34.6966 0.592
34.7071 0.470
34.7176 0.470
34.7282 0.633
34.7387 0.603
34.7492 0.490
34.7597 0.531
34.7703 0.449
34.7808 0.592
34.7913 0.592
34.8018 0.419
34.8123 0.306
34.8229 0.460
34.8334 0.511
34.8439 0.286
34.8544 0.460
34.8650 0.378
34.8755 0.541
34.8860 0.378
34.8965 0.480
34.9070 0.378
34.9176 0.357
34.9281 0.388
34.9386 0.368
34.9491 0.317
34.9597 0.531
34.9702 0.511
34.9807 0.347
34.9912 0.439
35.0018 0.255
35.0123 0.327
35.0228 0.357
35.0333 0.480
35.0438 0.347
35.0544 0.408
35.0649 0.429
35.0754 0.429
35.0859 0.317
35.0965 0.429
35.1070 0.368
35.1175 0.511
35.1280 0.419
35.1385 0.531
35.1491 0.368
35.1596 0.408
35.1701 0.511
35.1806 0.490
35.1912 0.592
35.2017 0.480
35.2122 0.582
35.2227 0.480
35.2332 0.572
35.2438 0.562
35.2543 0.623
35.2648 0.511
35.2753 0.603
35.2859 0.541
35.2964 0.705
35.3069 0.786
35.3174 0.929
35.3280 1.062
35.3385 0.950
35.3490 1.031
35.3595 1.011
35.3700 1.134
35.3806 1.062
35.3911 1.174
35.4016 1.164
35.4121 1.368
35.4227 1.563
35.4332 1.583
35.4437 1.777
35.4542 1.665
35.4647 2.226
35.4753 2.022
35.4858 2.645
35.4963 3.074
35.5068 3.533
35.5174 3.533
35.5279 4.361
35.5384 4.585
35.5489 5.739
35.5595 6.332
35.5700 7.026
35.5805 8.344
35.5910 9.365
35.6015 10.754
35.6121 12.132
35.6226 12.837
35.6331 14.808
35.6436 16.207
35.6542 16.626
35.6647 18.505
35.6752 18.219
35.6857 19.220
35.6962 19.434
35.7068 18.352
35.7173 17.953
35.7278 16.554
35.7383 14.951
35.7489 13.715
35.7594 11.703
35.7699 10.498
35.7804 9.395
35.7909 8.119
35.8015 7.128
35.8120 6.189
35.8225 5.668
35.8330 5.249
35.8436 4.534
35.8541 3.952
35.8646 3.258
35.8751 3.064
35.8857 2.972
35.8962 2.706
35.9067 2.226
35.9172 2.012
35.9277 1.746
35.9383 1.787
35.9488 1.583
35.9593 1.491
35.9698 1.266
35.9804 1.134
35.9909 0.991
36.0014 1.134
36.0119 1.001
36.0224 1.011
36.0330 0.991
36.0435 0.878
36.0540 1.001
36.0645 0.940
36.0751 0.746
36.0856 0.715
36.0961 0.725
36.1066 0.684
36.1171 0.746
36.1277 0.541
36.1382 0.715
36.1487 0.684
36.1592 0.500
36.1698 0.633
36.1803 0.500
36.1908 0.725
36.2013 0.439
36.2119 0.439
36.2224 0.623
36.2329 0.582
36.2434 0.654
36.2539 0.562
36.2645 0.592
36.2750 0.562
36.2855 0.613
36.2960 0.746
36.3066 0.613
36.3171 0.582
36.3276 0.715
36.3381 0.623
36.3486 0.715
36.3592 0.654
36.3697 0.684
36.3802 0.858
36.3907 0.694
36.4013 0.919
36.4118 0.827
36.4223 0.929
36.4328 1.083
36.4434 1.164
36.4539 1.481
36.4644 1.256
36.4749 1.420
36.4854 1.491
36.4960 1.644
36.5065 1.991
36.5170 1.940
36.5275 2.410
36.5381 2.512
36.5486 2.727
36.5591 3.135
36.5696 3.595
36.5801 3.676
36.5907 4.340
36.6012 4.718
36.6117 5.392
36.6222 5.025
36.6328 5.596
36.6433 5.402
36.6538 5.545
36.6643 5.617
36.6748 5.678
36.6854 5.627
36.6959 5.208
36.7064 5.300
36.7169 4.524
36.7275 4.187
36.7380 3.901
36.7485 3.687
36.7590 3.401
36.7696 2.706
36.7801 2.574
36.7906 1.951
36.8011 1.879
36.8116 1.695
36.8222 1.644
36.8327 1.379
36.8432 1.277
36.8537 1.144
36.8643 1.113
36.8748 1.042
36.8853 1.123
36.8958 0.837
36.9063 0.837
36.9169 0.582
36.9274 0.613
36.9379 0.623
36.9484 0.654
36.9590 0.684
36.9695 0.480
36.9800 0.746
36.9905 0.439
37.0010 0.480
37.0116 0.562
37.0221 0.531
37.0326 0.449
37.0431 0.388
37.0537 0.439
37.0642 0.408
37.0747 0.296
37.0852 0.429
37.0958 0.337
37.1063 0.357
37.1168 0.327
37.1273 0.347
37.1378 0.317
37.1484 0.317
37.1589 0.408
37.1694 0.347
37.1799 0.398
37.1905 0.368
37.2010 0.276
37.2115 0.317
37.2220 0.225
37.2325 0.255
37.2431 0.235
37.2536 0.296
37.2641 0.255
37.2746 0.317
37.2852 0.296
37.2957 0.347
37.3062 0.347
37.3167 0.194
37.3273 0.286
37.3378 0.276
37.3483 0.327
37.3588 0.245
37.3693 0.235
37.3799 0.266
37.3904 0.235
37.4009 0.388
37.4114 0.357
37.4220 0.327
37.4325 0.388
37.4430 0.286
37.4535 0.235
37.4640 0.327
37.4746 0.347
37.4851 0.327
37.4956 0.388
37.5061 0.286
37.5167 0.296
37.5272 0.398
37.5377 0.235
37.5482 0.286
37.5587 0.357
37.5693 0.357
37.5798 0.378
37.5903 0.378
37.6008 0.439
37.6114 0.306
37.6219 0.388
37.6324 0.449
37.6429 0.470
37.6535 0.511
37.6640 0.429
37.6745 0.357
37.6850 0.368
37.6955 0.419
37.7061 0.460
37.7166 0.460
37.7271 0.572
37.7376 0.480
37.7482 0.664
37.7587 0.613
37.7692 0.613
37.7797 0.705
37.7902 0.807
37.8008 0.735
37.8113 0.817
37.8218 0.705
37.8323 1.042
37.8429 1.215
37.8534 1.256
37.8639 1.644
37.8744 1.593
37.8849 1.930
37.8955 2.134
37.9060 2.339
37.9165 2.839
37.9270 2.982
37.9376 3.115
37.9481 3.646
37.9586 3.738
37.9691 3.779
37.9797 4.197
37.9902 4.483
38.0007 3.993
38.0112 3.952
38.0217 3.676
38.0323 3.482
38.0428 3.299
38.0533 2.982
38.0638 2.594
38.0744 2.369
38.0849 2.083
38.0954 1.757
38.1059 1.471
38.1164 1.573
38.1270 1.358
38.1375 0.909
38.1480 1.042
38.1585 0.848
38.1691 0.807
38.1796 0.940
38.1901 0.715
38.2006 0.715
38.2112 0.490
38.2217 0.541
38.2322 0.551
38.2427 0.643
38.2532 0.531
38.2638 0.449
38.2743 0.500
38.2848 0.378
38.2953 0.480
38.3059 0.500
38.3164 0.541
38.3269 0.511
38.3374 0.592
38.3479 0.480
38.3585 0.511
38.3690 0.572
38.3795 0.368
38.3900 0.388
38.4006 0.592
38.4111 0.419
38.4216 0.368
38.4321 0.460
38.4426 0.306
38.4532 0.429
38.4637 0.296
38.4742 0.266
38.4847 0.327
38.4953 0.245
38.5058 0.327
38.5163 0.266
38.5268 0.286
38.5374 0.337
38.5479 0.235
38.5584 0.204
38.5689 0.245
38.5794 0.276
38.5900 0.266
38.6005 0.317
38.6110 0.317
38.6215 0.225
38.6321 0.214
38.6426 0.225
38.6531 0.255
38.6636 0.317
38.6741 0.296
38.6847 0.286
38.6952 0.174
38.7057 0.266
38.7162 0.123
38.7268 0.245
38.7373 0.214
38.7478 0.204
38.7583 0.163
38.7689 0.286
38.7794 0.194
38.7899 0.317
38.8004 0.276
38.8109 0.296
38.8215 0.286
38.8320 0.276
38.8425 0.153
38.8530 0.204
38.8636 0.317
38.8741 0.276
38.8846 0.296
38.8951 0.296
38.9056 0.163
38.9162 0.327
38.9267 0.163
38.9372 0.286
38.9477 0.286
38.9583 0.286
38.9688 0.317
38.9793 0.245
38.9898 0.266
39.0003 0.194
39.0109 0.163
39.0214 0.337
39.0319 0.276
39.0424 0.327
39.0530 0.204
39.0635 0.327
39.0740 0.276
39.0845 0.388
39.0951 0.378
39.1056 0.306
39.1161 0.306
39.1266 0.470
39.1371 0.368
39.1477 0.357
39.1582 0.317
39.1687 0.306
39.1792 0.347
39.1898 0.460
39.2003 0.531
39.2108 0.531
39.2213 0.715
39.2318 0.705
39.2424 0.715
39.2529 0.807
39.2634 0.837
39.2739 1.103
39.2845 1.134
39.2950 1.317
39.3055 1.471
39.3160 1.440
39.3265 1.532
39.3371 2.104
39.3476 2.134
39.3581 2.196
39.3686 2.298
39.3792 2.563
39.3897 2.482
39.4002 2.492
39.4107 2.533
39.4213 2.002
39.4318 2.553
39.4423 2.022
39.4528 2.042
39.4633 1.971
39.4739 1.930
39.4844 1.624
39.4949 1.654
39.5054 1.328
39.5160 1.358
39.5265 1.328
39.5370 1.256
39.5475 1.215
39.5580 1.277
39.5686 1.317
39.5791 1.266
39.5896 1.481
39.6001 1.399
39.6107 1.409
39.6212 1.460
39.6317 1.644
39.6422 1.532
39.6528 1.757
39.6633 2.104
39.6738 1.991
39.6843 2.288
39.6948 2.533
39.7054 2.951
39.7159 3.064
39.7264 2.931
39.7369 3.503
39.7475 3.850
39.7580 3.891
39.7685 3.564
39.7790 4.320
39.7895 4.310
39.8001 4.361
39.8106 4.545
39.8211 4.299
39.8316 5.076
39.8422 4.626
39.8527 4.647
39.8632 4.330
39.8737 4.585
39.8842 4.677
39.8948 4.922
39.9053 4.422
39.9158 4.177
39.9263 4.167
39.9369 3.452
39.9474 3.339
39.9579 3.105
39.9684 3.033
39.9790 2.431
39.9895 2.196
40.0000 1.838
40.0105 1.685
40.0210 1.654
40.0316 1.420
40.0421 1.144
40.0526 1.134
40.0631 1.225
40.0737 0.970
40.0842 1.052
40.0947 0.807
40.1052 0.460
40.1157 0.684
40.1263 0.868
40.1368 0.623
40.1473 0.572
40.1578 0.541
40.1684 0.480
40.1789 0.306
40.1894 0.521
40.1999 0.368
40.2104 0.327
40.2210 0.327
40.2315 0.500
40.2420 0.357
40.2525 0.541
40.2631 0.429
40.2736 0.296
40.2841 0.347
40.2946 0.235
40.3052 0.266
40.3157 0.296
40.3262 0.337
40.3367 0.286
40.3472 0.317
40.3578 0.255
40.3683 0.255
40.3788 0.266
40.3893 0.286
40.3999 0.347
40.4104 0.296
40.4209 0.266
40.4314 0.255
40.4419 0.276
40.4525 0.184
40.4630 0.194
40.4735 0.255
40.4840 0.123
40.4946 0.225
40.5051 0.214
40.5156 0.327
40.5261 0.266
40.5367 0.255
40.5472 0.255
40.5577 0.255
40.5682 0.255
40.5787 0.133
40.5893 0.174
40.5998 0.245
40.6103 0.184
40.6208 0.123
40.6314 0.153
40.6419 0.245
40.6524 0.225
40.6629 0.255
40.6734 0.174
40.6840 0.174
40.6945 0.214
40.7050 0.235
40.7155 0.235
40.7261 0.225
40.7366 0.184
40.7471 0.235
40.7576 0.235
40.7681 0.174
40.7787 0.163
40.7892 0.163
40.7997 0.296
40.8102 0.194
40.8208 0.184
40.8313 0.245
40.8418 0.133
40.8523 0.235
40.8629 0.194
40.8734 0.163
40.8839 0.153
40.8944 0.245
40.9049 0.245
40.9155 0.306
40.9260 0.163
40.9365 0.143
40.9470 0.174
40.9576 0.204
40.9681 0.204
40.9786 0.214
40.9891 0.194
40.9996 0.184
41.0102 0.174
41.0207 0.214
41.0312 0.174
41.0417 0.235
41.0523 0.143
41.0628 0.194
41.0733 0.123
41.0838 0.123
41.0943 0.235
41.1049 0.143
41.1154 0.255
41.1259 0.194
41.1364 0.235
41.1470 0.214
41.1575 0.123
41.1680 0.235
41.1785 0.266
41.1891 0.163
41.1996 0.225
41.2101 0.214
41.2206 0.235
41.2311 0.174
41.2417 0.235
41.2522 0.174
41.2627 0.174
41.2732 0.153
41.2838 0.143
41.2943 0.163
41.3048 0.204
41.3153 0.163
41.3258 0.163
41.3364 0.296
41.3469 0.153
41.3574 0.133
41.3679 0.235
41.3785 0.235
41.3890 0.276
41.3995 0.255
41.4100 0.204
41.4206 0.214
41.4311 0.174
41.4416 0.163
41.4521 0.133
41.4626 0.235
41.4732 0.102
41.4837 0.163
41.4942 0.143
41.5047 0.204
41.5153 0.163
41.5258 0.204
41.5363 0.214
41.5468 0.194
41.5573 0.143
41.5679 0.184
41.5784 0.286
41.5889 0.296
41.5994 0.204
41.6100 0.174
41.6205 0.143
41.6310 0.174
41.6415 0.235
41.6520 0.204
41.6626 0.235
41.6731 0.184
41.6836 0.184
41.6941 0.184
41.7047 0.143
41.7152 0.235
41.7257 0.163
41.7362 0.184
41.7468 0.235
41.7573 0.235
41.7678 0.255
41.7783 0.225
41.7888 0.286
41.7994 0.286
41.8099 0.153
41.8204 0.184
41.8309 0.235
41.8415 0.204
41.8520 0.245
41.8625 0.327
41.8730 0.214
41.8835 0.245
41.8941 0.276
41.9046 0.245
41.9151 0.296
41.9256 0.214
41.9362 0.286
41.9467 0.255
41.9572 0.296
41.9677 0.368
41.9783 0.245
41.9888 0.266
41.9993 0.419
42.0098 0.398
42.0203 0.347
42.0309 0.429
42.0414 0.337
42.0519 0.419
42.0624 0.460
42.0730 0.460
42.0835 0.500
42.0940 0.613
42.1045 0.592
42.1150 0.694
42.1256 0.746
42.1361 0.756
42.1466 1.031
42.1571 1.021
42.1677 1.164
42.1782 1.277
42.1887 1.205
42.1992 1.593
42.2097 1.563
42.2203 2.032
42.2308 2.124
42.2413 2.369
42.2518 2.584
42.2624 2.808
42.2729 2.911
42.2834 3.156
42.2939 2.962
42.3045 3.115
42.3150 3.656
42.3255 3.094
42.3360 3.043
42.3465 2.635
42.3571 3.176
42.3676 2.471
42.3781 2.533
42.3886 2.441
42.3992 1.951
42.4097 1.848
42.4202 1.624
42.4307 1.501
42.4412 1.379
42.4518 1.205
42.4623 1.205
42.4728 1.001
42.4833 0.837
42.4939 0.776
42.5044 0.766
42.5149 0.776
42.5254 0.603
42.5359 0.643
42.5465 0.480
42.5570 0.480
42.5675 0.439
42.5780 0.378
42.5886 0.439
42.5991 0.388
42.6096 0.347
42.6201 0.460
42.6307 0.327
42.6412 0.378
42.6517 0.286
42.6622 0.286
42.6727 0.296
42.6833 0.378
42.6938 0.357
42.7043 0.296
42.7148 0.194
42.7254 0.408
42.7359 0.255
42.7464 0.327
42.7569 0.337
42.7674 0.266
42.7780 0.255
42.7885 0.357
42.7990 0.194
42.8095 0.245
42.8201 0.194
42.8306 0.276
42.8411 0.214
42.8516 0.266
42.8622 0.163
42.8727 0.143
42.8832 0.194
42.8937 0.184
42.9042 0.306
42.9148 0.286
42.9253 0.214
42.9358 0.174
42.9463 0.112
42.9569 0.143
42.9674 0.133
42.9779 0.245
42.9884 0.235
42.9989 0.112
43.0095 0.245
43.0200 0.194
43.0305 0.194
43.0410 0.194
43.0516 0.286
43.0621 0.143
43.0726 0.174
43.0831 0.255
43.0936 0.276
43.1042 0.204
43.1147 0.184
43.1252 0.153
43.1357 0.204
43.1463 0.153
43.1568 0.153
43.1673 0.184
43.1778 0.163
43.1884 0.235
43.1989 0.123
43.2094 0.214
43.2199 0.214
43.2304 0.092
43.2410 0.214
43.2515 0.163
43.2620 0.133
43.2725 0.174
43.2831 0.112
43.2936 0.204
43.3041 0.174
43.3146 0.184
43.3251 0.204
43.3357 0.143
43.3462 0.184
43.3567 0.143
43.3672 0.204
43.3778 0.276
43.3883 0.184
43.3988 0.235
43.4093 0.174
43.4198 0.235
43.4304 0.184
43.4409 0.174
43.4514 0.133
43.4619 0.092
43.4725 0.235
43.4830 0.204
43.4935 0.235
43.5040 0.194
43.5146 0.102
43.5251 0.184
43.5356 0.255
43.5461 0.163
43.5566 0.123
43.5672 0.143
43.5777 0.204
43.5882 0.123
43.5987 0.112
43.6093 0.123
43.6198 0.163
43.6303 0.194
43.6408 0.235
43.6513 0.153
43.6619 0.235
43.6724 0.163
43.6829 0.204
43.6934 0.133
43.7040 0.214
43.7145 0.123
43.7250 0.153
43.7355 0.225
43.7461 0.235
43.7566 0.214
43.7671 0.174
43.7776 0.153
43.7881 0.194
43.7987 0.133
43.8092 0.174
43.8197 0.133
43.8302 0.214
43.8408 0.133
43.8513 0.214
43.8618 0.225
43.8723 0.184
43.8828 0.204
43.8934 0.153
43.9039 0.194
43.9144 0.235
43.9249 0.214
43.9355 0.245
43.9460 0.235
43.9565 0.225
43.9670 0.235
43.9775 0.184
43.9881 0.153
43.9986 0.204
44.0091 0.184
44.0196 0.225
44.0302 0.204
44.0407 0.255
44.0512 0.276
44.0617 0.296
44.0723 0.204
44.0828 0.184
44.0933 0.204
44.1038 0.174
44.1143 0.235
44.1249 0.225
44.1354 0.266
44.1459 0.133
44.1564 0.255
44.1670 0.204
44.1775 0.327
44.1880 0.204
44.1985 0.317
44.2090 0.235
44.2196 0.255
44.2301 0.235
44.2406 0.235
44.2511 0.317
44.2617 0.296
44.2722 0.194
44.2827 0.306
44.2932 0.276
44.3037 0.306
44.3143 0.388
44.3248 0.378
44.3353 0.419
44.3458 0.378
44.3564 0.531
44.3669 0.439
44.3774 0.480
44.3879 0.562
44.3985 0.643
44.4090 0.746
44.4195 0.970
44.4300 0.684
44.4405 0.725
44.4511 0.919
44.4616 0.991
44.4721 0.950
44.4826 0.991
44.4932 1.072
44.5037 1.123
44.5142 1.123
44.5247 1.113
44.5352 1.031
44.5458 1.277
44.5563 1.021
44.5668 0.960
44.5773 0.674
44.5879 0.705
44.5984 0.531
44.6089 0.735
44.6194 0.521
44.6300 0.735
44.6405 0.511
44.6510 0.592
44.6615 0.408
44.6720 0.449
44.6826 0.378
44.6931 0.347
44.7036 0.378
44.7141 0.368
44.7247 0.357
44.7352 0.317
44.7457 0.306
44.7562 0.337
44.7667 0.296
44.7773 0.439
44.7878 0.286
44.7983 0.398
44.8088 0.357
44.8194 0.296
44.8299 0.276
44.8404 0.347
44.8509 0.378
44.8614 0.388
44.8720 0.480
44.8825 0.337
44.8930 0.368
44.9035 0.388
44.9141 0.449
44.9246 0.398
44.9351 0.337
44.9456 0.470
44.9562 0.511
44.9667 0.572
44.9772 0.480
44.9877 0.786
44.9982 0.827
45.0088 0.776
45.0193 1.001
45.0298 0.980
45.0403 0.929
45.0509 0.980
45.0614 1.021
45.0719 0.817
45.0824 0.991
45.0929 0.766
45.1035 0.837
45.1140 0.756
45.1245 0.623
45.1350 0.643
45.1456 0.623
45.1561 0.633
45.1666 0.654
45.1771 0.388
45.1877 0.603
45.1982 0.460
45.2087 0.449
45.2192 0.286
45.2297 0.398
45.2403 0.337
45.2508 0.306
45.2613 0.235
45.2718 0.255
45.2824 0.194
45.2929 0.255
45.3034 0.235
45.3139 0.306
45.3244 0.194
45.3350 0.204
45.3455 0.235
45.3560 0.214
45.3665 0.245
45.3771 0.204
45.3876 0.276
45.3981 0.255
45.4086 0.245
45.4191 0.204
45.4297 0.204
45.4402 0.133
45.4507 0.133
45.4612 0.184
45.4718 0.204
45.4823 0.143
45.4928 0.112
45.5033 0.204
45.5139 0.214
45.5244 0.184
45.5349 0.204
45.5454 0.163
45.5559 0.204
45.5665 0.225
45.5770 0.143
45.5875 0.194
45.5980 0.163
45.6086 0.143
45.6191 0.235
45.6296 0.204
45.6401 0.214
45.6506 0.143
45.6612 0.143
45.6717 0.225
45.6822 0.133
45.6927 0.194
45.7033 0.163
45.7138 0.153
45.7243 0.184
45.7348 0.102
45.7453 0.143
45.7559 0.245
45.7664 0.194
45.7769 0.184
45.7874 0.194
45.7980 0.225
45.8085 0.214
45.8190 0.143
45.8295 0.163
45.8401 0.143
45.8506 0.163
45.8611 0.143
45.8716 0.112
45.8821 0.123
45.8927 0.194
45.9032 0.174
45.9137 0.153
45.9242 0.184
45.9348 0.204
45.9453 0.153
45.9558 0.225
45.9663 0.174
45.9768 0.174
45.9874 0.163
45.9979 0.204
46.0084 0.163
46.0189 0.163
46.0295 0.153
46.0400 0.214
46.0505 0.112
46.0610 0.225
46.0716 0.153
46.0821 0.163
46.0926 0.153
46.1031 0.153
46.1136 0.235
46.1242 0.184
46.1347 0.225
46.1452 0.174
46.1557 0.184
46.1663 0.204
46.1768 0.204
46.1873 0.225
46.1978 0.143
46.2083 0.184
46.2189 0.245
46.2294 0.266
46.2399 0.255
46.2504 0.286
46.2610 0.296
46.2715 0.286
46.2820 0.184
46.2925 0.163
46.3030 0.357
46.3136 0.317
46.3241 0.398
46.3346 0.408
46.3451 0.419
46.3557 0.347
46.3662 0.460
46.3767 0.337
46.3872 0.419
46.3978 0.500
46.4083 0.408
46.4188 0.388
46.4293 0.592
46.4398 0.439
46.4504 0.470
46.4609 0.551
46.4714 0.511
46.4819 0.531
46.4925 0.562
46.5030 0.419
46.5135 0.531
46.5240 0.266
46.5345 0.296
46.5451 0.276
46.5556 0.347
46.5661 0.327
46.5766 0.398
46.5872 0.296
46.5977 0.347
46.6082 0.317
46.6187 0.235
46.6292 0.194
46.6398 0.153
46.6503 0.266
46.6608 0.184
46.6713 0.306
46.6819 0.306
46.6924 0.184
46.7029 0.153
46.7134 0.204
46.7240 0.174
46.7345 0.153
46.7450 0.204
46.7555 0.143
46.7660 0.194
46.7766 0.225
46.7871 0.163
46.7976 0.174
46.8081 0.204
46.8187 0.174
46.8292 0.184
46.8397 0.143
46.8502 0.235
46.8607 0.235
46.8713 0.255
46.8818 0.153
46.8923 0.204
46.9028 0.174
46.9134 0.194
46.9239 0.276
46.9344 0.204
46.9449 0.143
46.9555 0.133
46.9660 0.214
46.9765 0.214
46.9870 0.174
46.9975 0.123
47.0081 0.163
47.0186 0.184
47.0291 0.255
47.0396 0.194
47.0502 0.225
47.0607 0.204
47.0712 0.214
47.0817 0.214
47.0922 0.174
47.1028 0.133
47.1133 0.174
47.1238 0.133
47.1343 0.071
47.1449 0.123
47.1554 0.112
47.1659 0.174
47.1764 0.184
47.1869 0.174
47.1975 0.194
47.2080 0.163
47.2185 0.214
47.2290 0.184
47.2396 0.133
47.2501 0.194
47.2606 0.153
47.2711 0.133
47.2817 0.143
47.2922 0.133
47.3027 0.163
47.3132 0.143
47.3237 0.214
47.3343 0.214
47.3448 0.092
47.3553 0.214
47.3658 0.133
47.3764 0.153
47.3869 0.153
47.3974 0.194
47.4079 0.174
47.4184 0.133
47.4290 0.163
47.4395 0.184
47.4500 0.153
47.4605 0.082
47.4711 0.235
47.4816 0.112
47.4921 0.286
47.5026 0.194
47.5131 0.153
47.5237 0.163
47.5342 0.143
47.5447 0.163
47.5552 0.163
47.5658 0.123
47.5763 0.184
47.5868 0.143
47.5973 0.225
47.6079 0.214
47.6184 0.235
47.6289 0.174
47.6394 0.276
47.6499 0.133
47.6605 0.235
47.6710 0.153
47.6815 0.163
47.6920 0.214
47.7026 0.174
47.7131 0.204
47.7236 0.214
47.7341 0.133
47.7446 0.143
47.7552 0.194
47.7657 0.235
47.7762 0.194
47.7867 0.194
47.7973 0.327
47.8078 0.204
47.8183 0.235
47.8288 0.245
47.8394 0.184
47.8499 0.174
47.8604 0.184
47.8709 0.174
47.8814 0.204
47.8920 0.184
47.9025 0.143
47.9130 0.214
47.9235 0.143
47.9341 0.266
47.9446 0.163
47.9551 0.194
47.9656 0.184
47.9761 0.204
47.9867 0.235
47.9972 0.296
48.0077 0.194
48.0182 0.235
48.0288 0.317
48.0393 0.306
48.0498 0.306
48.0603 0.225
48.0708 0.368
48.0814 0.347
48.0919 0.306
48.1024 0.378
48.1129 0.449
48.1235 0.480
48.1340 0.449
48.1445 0.429
48.1550 0.347
48.1656 0.357
48.1761 0.317
48.1866 0.480
48.1971 0.368
48.2076 0.357
48.2182 0.408
48.2287 0.327
48.2392 0.266
48.2497 0.306
48.2603 0.266
48.2708 0.327
48.2813 0.235
48.2918 0.296
48.3023 0.225
48.3129 0.214
48.3234 0.245
48.3339 0.163
48.3444 0.184
48.3550 0.184
48.3655 0.163
48.3760 0.204
48.3865 0.204
48.3970 0.133
48.4076 0.214
48.4181 0.133
48.4286 0.225
48.4391 0.225
48.4497 0.163
48.4602 0.214
48.4707 0.194
48.4812 0.235
48.4918 0.255
48.5023 0.174
48.5128 0.174
48.5233 0.163
48.5338 0.245
48.5444 0.214
48.5549 0.204
48.5654 0.194
48.5759 0.174
48.5865 0.214
48.5970 0.214
48.6075 0.245
48.6180 0.133
48.6285 0.235
48.6391 0.255
48.6496 0.133
48.6601 0.184
48.6706 0.225
48.6812 0.214
48.6917 0.153
48.7022 0.184
48.7127 0.204
48.7233 0.194
48.7338 0.255
48.7443 0.214
48.7548 0.245
48.7653 0.286
48.7759 0.163
48.7864 0.255
48.7969 0.266
48.8074 0.327
48.8180 0.286
48.8285 0.245
48.8390 0.266
48.8495 0.266
48.8600 0.194
48.8706 0.337
48.8811 0.317
48.8916 0.276
48.9021 0.306
48.9127 0.245
48.9232 0.317
48.9337 0.306
48.9442 0.194
48.9547 0.286
48.9653 0.378
48.9758 0.266
48.9863 0.296
48.9968 0.235
49.0074 0.306
49.0179 0.368
49.0284 0.337
49.0389 0.378
49.0495 0.317
49.0600 0.388
49.0705 0.317
49.0810 0.439
49.0915 0.613
49.1021 0.439
49.1126 0.551
49.1231 0.623
49.1336 0.592
49.1442 0.572
49.1547 0.654
49.1652 0.797
49.1757 0.827
49.1862 0.694
49.1968 1.011
49.2073 1.052
49.2178 1.031
49.2283 1.277
49.2389 1.450
49.2494 1.266
49.2599 1.624
49.2704 1.593
49.2810 1.746
49.2915 2.083
49.3020 2.216
49.3125 2.053
49.3230 2.165
49.3336 1.951
49.3441 2.083
49.3546 2.165
49.3651 2.022
49.3757 1.808
49.3862 1.654
49.3967 1.614
49.4072 1.501
49.4177 1.614
49.4283 1.317
49.4388 1.624
49.4493 1.164
49.4598 1.277
49.4704 0.950
49.4809 1.052
49.4914 0.899
49.5019 0.970
49.5124 0.756
49.5230 0.684
49.5335 0.888
49.5440 0.878
49.5545 0.694
49.5651 0.684
49.5756 0.633
49.5861 0.562
49.5966 0.562
49.6072 0.562
49.6177 0.623
49.6282 0.603
49.6387 0.347
49.6492 0.582
49.6598 0.388
49.6703 0.408
49.6808 0.551
49.6913 0.357
49.7019 0.398
49.7124 0.378
49.7229 0.317
49.7334 0.408
49.7439 0.439
49.7545 0.378
49.7650 0.368
49.7755 0.306
49.7860 0.408
49.7966 0.286
49.8071 0.306
49.8176 0.408
49.8281 0.266
49.8386 0.419
49.8492 0.408
49.8597 0.214
49.8702 0.296
49.8807 0.347
49.8913 0.327
49.9018 0.388
49.9123 0.368
49.9228 0.337
49.9334 0.439
49.9439 0.460
49.9544 0.357
49.9649 0.429
49.9754 0.337
49.9860 0.368
49.9965 0.419
50.0070 0.398
50.0175 0.500
50.0281 0.541
50.0386 0.592
50.0491 0.541
50.0596 0.460
50.0701 0.521
50.0807 0.674
50.0912 0.858
50.1017 0.654
50.1122 0.674
50.1228 0.694
50.1333 0.735
50.1438 0.725
50.1543 0.991
50.1649 0.940
50.1754 0.950
50.1859 0.899
50.1964 0.940
50.2069 1.083
50.2175 1.042
50.2280 0.797
50.2385 1.164
50.2490 1.144
50.2596 1.083
50.2701 1.174
50.2806 1.266
50.2911 1.399
50.3016 1.450
50.3122 1.368
50.3227 1.573
50.3332 1.542
50.3437 1.767
50.3543 1.900
50.3648 2.032
50.3753 1.818
50.3858 2.063
50.3963 2.104
50.4069 2.175
50.4174 2.339
50.4279 2.032
50.4384 2.502
50.4490 2.134
50.4595 2.277
50.4700 2.206
50.4805 2.094
50.4911 1.889
50.5016 1.991
50.5121 1.930
50.5226 2.114
50.5331 1.797
50.5437 1.940
50.5542 1.981
50.5647 1.757
50.5752 1.767
50.5858 1.777
50.5963 1.757
50.6068 1.859
50.6173 1.593
50.6278 1.705
50.6384 1.573
50.6489 1.685
50.6594 2.002
50.6699 1.583
50.6805 1.511
50.6910 1.511
50.7015 1.491
50.7120 1.266
50.7225 1.215
50.7331 1.195
50.7436 1.001
50.7541 1.052
50.7646 0.960
50.7752 0.991
50.7857 0.858
50.7962 0.817
50.8067 0.715
50.8173 0.674
50.8278 0.592
50.8383 0.562
50.8488 0.551
50.8593 0.521
50.8699 0.511
50.8804 0.460
50.8909 0.500
50.9014 0.419
50.9120 0.541
50.9225 0.388
50.9330 0.419
50.9435 0.214
50.9540 0.378
50.9646 0.296
50.9751 0.317
50.9856 0.276
50.9961 0.368
51.0067 0.408
51.0172 0.317
51.0277 0.286
51.0382 0.296
51.0488 0.266
51.0593 0.225
51.0698 0.204
51.0803 0.327
51.0908 0.245
51.1014 0.245
51.1119 0.347
51.1224 0.245
51.1329 0.225
51.1435 0.184
51.1540 0.276
51.1645 0.204
51.1750 0.194
51.1855 0.204
51.1961 0.245
51.2066 0.296
51.2171 0.214
51.2276 0.255
51.2382 0.225
51.2487 0.276
51.2592 0.174
51.2697 0.255
51.2802 0.153
51.2908 0.225
51.3013 0.214
51.3118 0.235
51.3223 0.123
51.3329 0.245
51.3434 0.296
51.3539 0.266
51.3644 0.225
51.3750 0.214
51.3855 0.194
51.3960 0.174
51.4065 0.214
51.4170 0.214
51.4276 0.235
51.4381 0.133
51.4486 0.174
51.4591 0.112
51.4697 0.276
51.4802 0.163
51.4907 0.174
51.5012 0.235
51.5117 0.123
51.5223 0.317
51.5328 0.163
51.5433 0.276
51.5538 0.194
51.5644 0.184
51.5749 0.133
51.5854 0.286
51.5959 0.214
51.6064 0.184
51.6170 0.266
51.6275 0.204
51.6380 0.245
51.6485 0.286
51.6591 0.255
51.6696 0.225
51.6801 0.225
51.6906 0.327
51.7012 0.184
51.7117 0.204
51.7222 0.143
51.7327 0.153
51.7432 0.255
51.7538 0.296
51.7643 0.194
51.7748 0.245
51.7853 0.143
51.7959 0.214
51.8064 0.276
51.8169 0.174
51.8274 0.296
51.8379 0.235
51.8485 0.235
51.8590 0.276
51.8695 0.266
51.8800 0.276
51.8906 0.255
51.9011 0.214
51.9116 0.266
51.9221 0.225
51.9327 0.306
51.9432 0.276
51.9537 0.204
51.9642 0.184
51.9747 0.296
51.9853 0.194
51.9958 0.255
52.0063 0.306
52.0168 0.276
52.0274 0.204
52.0379 0.255
52.0484 0.194
52.0589 0.245
52.0694 0.225
52.0800 0.245
52.0905 0.286
52.1010 0.357
52.1115 0.357
52.1221 0.296
52.1326 0.398
52.1431 0.347
52.1536 0.306
52.1641 0.368
52.1747 0.480
52.1852 0.388
52.1957 0.449
52.2062 0.480
52.2168 0.429
52.2273 0.480
52.2378 0.531
52.2483 0.705
52.2589 0.480
52.2694 0.490
52.2799 0.613
52.2904 0.705
52.3009 0.654
52.3115 0.592
52.3220 0.766
52.3325 0.848
52.3430 0.868
52.3536 0.991
52.3641 0.960
52.3746 0.960
52.3851 0.858
52.3956 1.491
52.4062 1.430
52.4167 1.225
52.4272 1.644
52.4377 1.767
52.4483 2.012
52.4588 2.083
52.4693 2.390
52.4798 2.563
52.4904 2.441
52.5009 3.248
52.5114 2.819
52.5219 3.319
52.5324 3.758
52.5430 4.024
52.5535 4.759
52.5640 5.045
52.5745 4.769
52.5851 5.300
52.5956 5.974
52.6061 6.230
52.6166 5.974
52.6271 5.637
52.6377 5.780
52.6482 5.607
52.6587 5.474
52.6692 5.515
52.6798 5.157
52.6903 5.647
52.7008 5.198
52.7113 4.493
52.7218 4.442
52.7324 4.197
52.7429 4.177
52.7534 3.850
52.7639 3.431
52.7745 3.585
52.7850 3.513
52.7955 3.452
52.8060 2.798
52.8166 2.931
52.8271 2.594
52.8376 2.165
52.8481 2.257
52.8586 2.247
52.8692 2.257
52.8797 2.206
52.8902 1.685
52.9007 1.900
52.9113 1.940
52.9218 1.787
52.9323 1.542
52.9428 1.481
52.9533 1.389
52.9639 1.348
52.9744 1.205
52.9849 1.113
52.9954 1.174
53.0060 1.164
53.0165 1.001
53.0270 0.970
53.0375 0.909
53.0480 0.868
53.0586 0.746
53.0691 0.848
53.0796 0.705
53.0901 0.694
53.1007 0.541
53.1112 0.674
53.1217 0.572
53.1322 0.643
53.1428 0.460
53.1533 0.419
53.1638 0.551
53.1743 0.572
53.1848 0.603
53.1954 0.623
53.2059 0.460
53.2164 0.541
53.2269 0.500
53.2375 0.449
53.2480 0.480
53.2585 0.470
53.2690 0.603
53.2795 0.572
53.2901 0.429
53.3006 0.449
53.3111 0.490
53.3216 0.378
53.3322 0.408
53.3427 0.347
53.3532 0.521
53.3637 0.378
53.3743 0.317
53.3848 0.439
53.3953 0.204
53.4058 0.347
53.4163 0.408
53.4269 0.296
53.4374 0.225
53.4479 0.306
53.4584 0.235
53.4690 0.214
53.4795 0.225
53.4900 0.317
53.5005 0.163
53.5110 0.225
53.5216 0.255
53.5321 0.235
53.5426 0.163
53.5531 0.214
53.5637 0.204
53.5742 0.204
53.5847 0.184
53.5952 0.255
53.6057 0.286
53.6163 0.276
53.6268 0.286
53.6373 0.235
53.6478 0.174
53.6584 0.143
53.6689 0.184
53.6794 0.163
53.6899 0.255
53.7005 0.266
53.7110 0.153
53.7215 0.214
53.7320 0.266
53.7425 0.245
53.7531 0.235
53.7636 0.153
53.7741 0.174
53.7846 0.266
53.7952 0.214
53.8057 0.204
53.8162 0.214
53.8267 0.174
53.8372 0.225
53.8478 0.296
53.8583 0.184
53.8688 0.225
53.8793 0.194
53.8899 0.163
53.9004 0.184
53.9109 0.286
53.9214 0.194
53.9319 0.184
53.9425 0.214
53.9530 0.245
53.9635 0.245
53.9740 0.296
53.9846 0.255
53.9951 0.184
54.0056 0.184
54.0161 0.194
54.0267 0.184
54.0372 0.102
54.0477 0.235
54.0582 0.235
54.0687 0.174
54.0793 0.266
54.0898 0.225
54.1003 0.112
54.1108 0.174
54.1214 0.214
54.1319 0.204
54.1424 0.133
54.1529 0.245
54.1634 0.235
54.1740 0.214
54.1845 0.184
54.1950 0.163
54.2055 0.163
54.2161 0.214
54.2266 0.194
54.2371 0.266
54.2476 0.235
54.2582 0.194
54.2687 0.204
54.2792 0.184
54.2897 0.153
54.3002 0.225
54.3108 0.214
54.3213 0.133
54.3318 0.225
54.3423 0.123
54.3529 0.153
54.3634 0.214
54.3739 0.225
54.3844 0.337
54.3949 0.204
54.4055 0.276
54.4160 0.245
54.4265 0.296
54.4370 0.174
54.4476 0.163
54.4581 0.225
54.4686 0.204
54.4791 0.255
54.4896 0.286
54.5002 0.214
54.5107 0.194
54.5212 0.245
54.5317 0.204
54.5423 0.174
54.5528 0.184
54.5633 0.398
54.5738 0.276
54.5844 0.266
54.5949 0.194
54.6054 0.266
54.6159 0.214
54.6264 0.347
54.6370 0.378
54.6475 0.368
54.6580 0.347
54.6685 0.317
54.6791 0.347
54.6896 0.276
54.7001 0.357
54.7106 0.327
54.7211 0.266
54.7317 0.317
54.7422 0.398
54.7527 0.408
54.7632 0.419
54.7738 0.460
54.7843 0.368
54.7948 0.429
54.8053 0.551
54.8158 0.551
54.8264 0.551
54.8369 0.684
54.8474 0.562
54.8579 0.705
54.8685 0.735
54.8790 0.654
54.8895 0.817
54.9000 1.031
54.9106 1.052
54.9211 1.174
54.9316 1.174
54.9421 1.522
54.9526 1.246
54.9632 1.542
54.9737 1.746
54.9842 1.930
54.9947 1.889
55.0053 2.451
55.0158 2.226
55.0263 2.155
55.0368 2.359
55.0473 2.665
55.0579 2.717
55.0684 2.594
55.0789 2.829
55.0894 2.512
55.1000 2.308
55.1105 2.318
55.1210 2.002
55.1315 1.961
55.1421 1.920
55.1526 1.920
55.1631 1.675
55.1736 1.614
55.1841 1.481
55.1947 1.471
55.2052 1.287
55.2157 1.256
55.2262 1.093
55.2368 1.072
55.2473 0.950
55.2578 1.001
55.2683 1.001
55.2788 0.909
55.2894 1.052
55.2999 0.827
55.3104 1.113
55.3209 0.827
55.3315 0.766
55.3420 1.123
55.3525 1.389
55.3630 0.980
55.3735 1.215
55.3841 1.154
55.3946 1.093
55.4051 1.409
55.4156 1.338
55.4262 1.164
55.4367 1.573
55.4472 1.542
55.4577 1.716
55.4683 1.757
55.4788 1.981
55.4893 2.237
55.4998 2.655
55.5103 2.706
55.5209 2.533
55.5314 2.962
55.5419 3.145
55.5524 3.166
55.5630 2.941
55.5735 3.554
55.5840 2.655
55.5945 3.033
55.6050 2.676
55.6156 2.768
55.6261 2.717
55.6366 2.441
55.6471 2.359
55.6577 2.237
55.6682 2.022
55.6787 2.032
55.6892 1.716
55.6998 1.511
55.7103 1.389
55.7208 1.256
55.7313 1.205
55.7418 1.134
55.7524 1.001
55.7629 1.011
55.7734 0.970
55.7839 0.940
55.7945 0.654
55.8050 0.848
55.8155 0.797
55.8260 0.643
55.8365 0.746
55.8471 0.623
55.8576 0.551
55.8681 0.460
55.8786 0.531
55.8892 0.490
55.8997 0.500
55.9102 0.500
55.9207 0.357
55.9312 0.511
55.9418 0.429
55.9523 0.449
55.9628 0.347
55.9733 0.357
55.9839 0.306
55.9944 0.429
56.0049 0.276
56.0154 0.368
56.0260 0.317
56.0365 0.266
56.0470 0.378
56.0575 0.225
56.0680 0.317
56.0786 0.378
56.0891 0.347
56.0996 0.337
56.1101 0.296
56.1207 0.286
56.1312 0.286
56.1417 0.306
56.1522 0.317
56.1627 0.235
56.1733 0.317
56.1838 0.306
56.1943 0.276
56.2048 0.225
56.2154 0.368
56.2259 0.276
56.2364 0.347
56.2469 0.378
56.2574 0.357
56.2680 0.296
56.2785 0.347
56.2890 0.470
56.2995 0.388
56.3101 0.439
56.3206 0.378
56.3311 0.357
56.3416 0.470
56.3522 0.357
56.3627 0.337
56.3732 0.470
56.3837 0.480
56.3942 0.572
56.4048 0.500
56.4153 0.419
56.4258 0.500
56.4363 0.511
56.4469 0.562
56.4574 0.623
56.4679 0.511
56.4784 0.562
56.4889 0.654
56.4995 0.735
56.5100 0.715
56.5205 0.899
56.5310 0.817
56.5416 1.113
56.5521 1.174
56.5626 0.909
56.5731 1.236
56.5837 1.144
56.5942 1.256
56.6047 1.511
56.6152 1.399
56.6257 1.593
56.6363 1.716
56.6468 1.736
56.6573 2.216
56.6678 2.175
56.6784 2.216
56.6889 2.441
56.6994 2.185
56.7099 2.676
56.7204 2.992
56.7310 2.921
56.7415 3.217
56.7520 2.992
56.7625 3.084
56.7731 3.023
56.7836 3.268
56.7941 3.421
56.8046 3.074
56.8151 2.931
56.8257 2.737
56.8362 2.962
56.8467 2.574
56.8572 2.461
56.8678 2.665
56.8783 2.318
56.8888 2.185
56.8993 1.981
56.9099 1.869
56.9204 1.583
56.9309 1.409
56.9414 1.215
56.9519 1.195
56.9625 1.287
56.9730 1.205
56.9835 1.113
56.9940 1.134
57.0046 0.837
57.0151 0.684
57.0256 0.858
57.0361 0.807
57.0466 0.654
57.0572 0.807
57.0677 0.766
57.0782 0.572
57.0887 0.541
57.0993 0.674
57.1098 0.582
57.1203 0.735
57.1308 0.500
57.1413 0.460
57.1519 0.490
57.1624 0.449
57.1729 0.347
57.1834 0.541
57.1940 0.337
57.2045 0.357
57.2150 0.357
57.2255 0.408
57.2361 0.368
57.2466 0.317
57.2571 0.306
57.2676 0.245
57.2781 0.266
57.2887 0.245
57.2992 0.276
57.3097 0.327
57.3202 0.296
57.3308 0.266
57.3413 0.368
57.3518 0.347
57.3623 0.214
57.3728 0.357
57.3834 0.317
57.3939 0.255
57.4044 0.296
57.4149 0.306
57.4255 0.286
57.4360 0.368
57.4465 0.245
57.4570 0.296
57.4676 0.327
57.4781 0.398
57.4886 0.378
57.4991 0.296
57.5096 0.337
57.5202 0.408
57.5307 0.439
57.5412 0.388
57.5517 0.398
57.5623 0.398
57.5728 0.551
57.5833 0.378
57.5938 0.541
57.6043 0.511
57.6149 0.480
57.6254 0.480
57.6359 0.531
57.6464 0.562
57.6570 0.592
57.6675 0.643
57.6780 0.592
57.6885 0.633
57.6990 0.603
57.7096 0.551
57.7201 0.490
57.7306 0.368
57.7411 0.582
57.7517 0.511
57.7622 0.419
57.7727 0.398
57.7832 0.357
57.7938 0.449
57.8043 0.245
57.8148 0.378
57.8253 0.296
57.8358 0.347
57.8464 0.317
57.8569 0.337
57.8674 0.245
57.8779 0.368
57.8885 0.296
57.8990 0.286
57.9095 0.266
57.9200 0.266
57.9305 0.368
57.9411 0.276
57.9516 0.276
57.9621 0.266
57.9726 0.266
57.9832 0.245
57.9937 0.225
58.0042 0.327
58.0147 0.245
58.0252 0.378
58.0358 0.327
58.0463 0.255
58.0568 0.419
58.0673 0.327
58.0779 0.337
58.0884 0.245
58.0989 0.388
58.1094 0.511
58.1200 0.531
58.1305 0.398
58.1410 0.541
58.1515 0.654
58.1620 0.470
58.1726 0.470
58.1831 0.715
58.1936 0.562
58.2041 0.746
58.2147 0.551
58.2252 0.766
58.2357 0.797
58.2462 0.694
58.2567 1.031
58.2673 1.052
58.2778 0.960
58.2883 1.205
58.2988 1.093
58.3094 1.460
58.3199 1.379
58.3304 1.542
58.3409 1.552
58.3515 1.746
58.3620 1.685
58.3725 1.685
58.3830 1.828
58.3935 1.665
58.4041 1.991
58.4146 1.695
58.4251 1.889
58.4356 1.654
58.4462 1.808
58.4567 1.593
58.4672 1.266
58.4777 1.685
58.4882 1.317
58.4988 1.440
58.5093 1.358
58.5198 1.225
58.5303 1.164
58.5409 1.083
58.5514 1.021
58.5619 0.858
58.5724 0.725
58.5829 0.746
58.5935 0.592
58.6040 0.684
58.6145 0.572
58.6250 0.541
58.6356 0.480
58.6461 0.449
58.6566 0.531
58.6671 0.429
58.6777 0.419
58.6882 0.521
58.6987 0.470
58.7092 0.398
58.7197 0.378
58.7303 0.388
58.7408 0.286
58.7513 0.286
58.7618 0.306
58.7724 0.184
58.7829 0.255
58.7934 0.225
58.8039 0.317
58.8144 0.266
58.8250 0.357
58.8355 0.194
58.8460 0.337
58.8565 0.255
58.8671 0.276
58.8776 0.317
58.8881 0.245
58.8986 0.214
58.9091 0.204
58.9197 0.204
58.9302 0.378
58.9407 0.174
58.9512 0.163
58.9618 0.286
58.9723 0.266
58.9828 0.255
58.9933 0.194
59.0039 0.214
59.0144 0.143
59.0249 0.214
59.0354 0.174
59.0459 0.204
59.0565 0.327
59.0670 0.214
59.0775 0.163
59.0880 0.163
59.0986 0.204
59.1091 0.378
59.1196 0.276
59.1301 0.204
59.1406 0.266
59.1512 0.255
59.1617 0.133
59.1722 0.317
59.1827 0.123
59.1933 0.276
59.2038 0.296
59.2143 0.276
59.2248 0.276
59.2354 0.133
59.2459 0.225
59.2564 0.184
59.2669 0.235
59.2774 0.123
59.2880 0.276
59.2985 0.163
59.3090 0.204
59.3195 0.163
59.3301 0.133
59.3406 0.235
59.3511 0.143
59.3616 0.153
59.3721 0.276
59.3827 0.214
59.3932 0.153
59.4037 0.194
59.4142 0.184
59.4248 0.133
59.4353 0.174
59.4458 0.225
59.4563 0.163
59.4668 0.204
59.4774 0.214
59.4879 0.174
59.4984 0.204
59.5089 0.194
59.5195 0.194
59.5300 0.194
59.5405 0.204
59.5510 0.235
59.5616 0.204
59.5721 0.306
59.5826 0.235
59.5931 0.184
59.6036 0.204
59.6142 0.245
59.6247 0.245
59.6352 0.143
59.6457 0.255
59.6563 0.245
59.6668 0.296
59.6773 0.276
59.6878 0.266
59.6983 0.235
59.7089 0.245
59.7194 0.266
59.7299 0.184
59.7404 0.306
59.7510 0.296
59.7615 0.184
59.7720 0.204
59.7825 0.245
59.7931 0.204
59.8036 0.245
59.8141 0.276
59.8246 0.204
59.8351 0.184
59.8457 0.266
59.8562 0.204
59.8667 0.194
59.8772 0.174
59.8878 0.276
59.8983 0.235
59.9088 0.235
59.9193 0.153
59.9298 0.204
59.9404 0.174
59.9509 0.153
59.9614 0.143
59.9719 0.204
59.9825 0.204
59.9930 0.204
60.0035 0.225
60.0140 0.174
60.0245 0.123
60.0351 0.245
60.0456 0.194
60.0561 0.174
60.0666 0.123
60.0772 0.123
60.0877 0.184
60.0982 0.235
60.1087 0.245
60.1193 0.102
60.1298 0.163
60.1403 0.225
60.1508 0.276
60.1613 0.153
60.1719 0.184
60.1824 0.194
60.1929 0.184
60.2034 0.112
60.2140 0.194
60.2245 0.225
60.2350 0.184
60.2455 0.184
60.2560 0.143
60.2666 0.102
60.2771 0.184
60.2876 0.143
60.2981 0.174
60.3087 0.184
60.3192 0.153
60.3297 0.163
60.3402 0.143
60.3507 0.163
60.3613 0.123
60.3718 0.153
60.3823 0.184
60.3928 0.286
60.4034 0.214
60.4139 0.245
60.4244 0.163
60.4349 0.123
60.4455 0.163
60.4560 0.133
60.4665 0.133
60.4770 0.266
60.4875 0.153
60.4981 0.225
60.5086 0.133
60.5191 0.204
60.5296 0.214
60.5402 0.184
60.5507 0.194
60.5612 0.214
60.5717 0.276
60.5822 0.204
60.5928 0.214
60.6033 0.174
60.6138 0.245
60.6243 0.143
60.6349 0.245
60.6454 0.184
60.6559 0.123
60.6664 0.204
60.6770 0.214
60.6875 0.204
60.6980 0.225
60.7085 0.276
60.7190 0.184
60.7296 0.133
60.7401 0.143
60.7506 0.225
60.7611 0.123
60.7717 0.163
60.7822 0.194
60.7927 0.184
60.8032 0.133
60.8137 0.112
60.8243 0.204
60.8348 0.214
60.8453 0.163
60.8558 0.133
60.8664 0.214
60.8769 0.133
60.8874 0.092
60.8979 0.225
60.9084 0.204
60.9190 0.133
60.9295 0.163
60.9400 0.153
60.9505 0.143
60.9611 0.153
60.9716 0.266
60.9821 0.163
60.9926 0.225
61.0032 0.184
61.0137 0.327
61.0242 0.225
61.0347 0.296
61.0452 0.327
61.0558 0.184
61.0663 0.245
61.0768 0.286
61.0873 0.327
61.0979 0.214
61.1084 0.245
61.1189 0.194
61.1294 0.225
61.1399 0.266
61.1505 0.337
61.1610 0.235
61.1715 0.327
61.1820 0.286
61.1926 0.266
61.2031 0.276
61.2136 0.235
61.2241 0.286
61.2346 0.368
61.2452 0.245
61.2557 0.286
61.2662 0.194
61.2767 0.266
61.2873 0.357
61.2978 0.378
61.3083 0.357
61.3188 0.327
61.3294 0.317
61.3399 0.276
61.3504 0.378
61.3609 0.276
61.3714 0.368
61.3820 0.357
61.3925 0.490
61.4030 0.378
61.4135 0.572
61.4241 0.408
61.4346 0.500
61.4451 0.562
61.4556 0.551
61.4661 0.470
61.4767 0.592
61.4872 0.531
61.4977 0.746
61.5082 0.715
61.5188 0.735
61.5293 0.674
61.5398 0.878
61.5503 0.797
61.5609 0.715
61.5714 0.756
61.5819 0.970
61.5924 0.909
61.6029 1.215
61.6135 1.195
61.6240 1.083
61.6345 1.031
61.6450 1.031
61.6556 1.563
61.6661 1.501
61.6766 1.532
61.6871 1.481
61.6976 1.859
61.7082 1.971
61.7187 1.879
61.7292 2.094
61.7397 2.257
61.7503 2.431
61.7608 2.686
61.7713 2.645
61.7818 2.921
61.7923 2.931
61.8029 2.900
61.8134 3.380
61.8239 3.431
61.8344 3.360
61.8450 3.789
61.8555 3.503
61.8660 3.625
61.8765 3.860
61.8871 3.962
61.8976 3.779
61.9081 3.942
61.9186 3.962
61.9291 3.605
61.9397 4.054
61.9502 3.962
61.9607 3.493
61.9712 3.533
61.9818 3.676
61.9923 3.523
62.0028 3.156
62.0133 3.258
62.0238 3.421
62.0344 2.900
62.0449 3.186
62.0554 2.829
62.0659 2.635
62.0765 2.849
62.0870 3.013
62.0975 2.778
62.1080 2.911
62.1185 2.717
62.1291 2.665
62.1396 2.931
62.1501 2.635
62.1606 2.829
62.1712 3.125
62.1817 3.186
62.1922 2.768
62.2027 2.717
62.2133 2.859
62.2238 2.808
62.2343 2.533
62.2448 2.410
62.2553 2.349
62.2659 2.226
62.2764 2.155
62.2869 1.787
62.2974 2.022
62.3080 1.777
62.3185 1.818
62.3290 1.654
62.3395 1.256
62.3500 1.246
62.3606 1.164
62.3711 1.031
62.3816 1.185
62.3921 0.929
62.4027 1.021
62.4132 0.888
62.4237 0.848
62.4342 0.715
62.4448 0.756
62.4553 0.684
62.4658 0.541
62.4763 0.480
62.4868 0.521
62.4974 0.551
62.5079 0.439
62.5184 0.572
62.5289 0.388
62.5395 0.347
62.5500 0.368
62.5605 0.531
62.5710 0.317
62.5815 0.347
62.5921 0.511
62.6026 0.337
62.6131 0.408
62.6236 0.378
62.6342 0.357
62.6447 0.398
62.6552 0.306
62.6657 0.327
62.6762 0.306
62.6868 0.306
62.6973 0.337
62.7078 0.327
62.7183 0.276
62.7289 0.317
62.7394 0.337
62.7499 0.102
62.7604 0.337
62.7710 0.266
62.7815 0.255
62.7920 0.327
62.8025 0.225
62.8130 0.163
62.8236 0.153
62.8341 0.296
62.8446 0.235
62.8551 0.266
62.8657 0.317
62.8762 0.133
62.8867 0.153
62.8972 0.266
62.9077 0.184
62.9183 0.225
62.9288 0.214
62.9393 0.245
62.9498 0.153
62.9604 0.174
62.9709 0.163
62.9814 0.317
62.9919 0.194
63.0025 0.163
63.0130 0.143
63.0235 0.204
63.0340 0.153
63.0445 0.214
63.0551 0.153
63.0656 0.184
63.0761 0.286
63.0866 0.225
63.0972 0.255
63.1077 0.225
63.1182 0.255
63.1287 0.225
63.1392 0.184
63.1498 0.163
63.1603 0.184
63.1708 0.235
63.1813 0.204
63.1919 0.347
63.2024 0.235
63.2129 0.245
63.2234 0.184
63.2339 0.194
63.2445 0.214
63.2550 0.214
63.2655 0.174
63.2760 0.235
63.2866 0.153
63.2971 0.204
63.3076 0.235
63.3181 0.225
63.3287 0.194
63.3392 0.153
63.3497 0.214
63.3602 0.163
63.3707 0.143
63.3813 0.266
63.3918 0.214
63.4023 0.174
63.4128 0.153
63.4234 0.255
63.4339 0.174
63.4444 0.225
63.4549 0.184
63.4654 0.184
63.4760 0.194
63.4865 0.276
63.4970 0.133
63.5075 0.153
63.5181 0.204
63.5286 0.286
63.5391 0.235
63.5496 0.194
63.5601 0.266
63.5707 0.163
63.5812 0.286
63.5917 0.123
63.6022 0.143
63.6128 0.184
63.6233 0.235
63.6338 0.153
63.6443 0.327
63.6549 0.235
63.6654 0.235
63.6759 0.347
63.6864 0.194
63.6969 0.225
63.7075 0.184
63.7180 0.133
63.7285 0.214
63.7390 0.255
63.7496 0.204
63.7601 0.235
63.7706 0.255
63.7811 0.286
63.7916 0.235
63.8022 0.276
63.8127 0.449
63.8232 0.225
63.8337 0.347
63.8443 0.225
63.8548 0.306
63.8653 0.255
63.8758 0.255
63.8864 0.347
63.8969 0.378
63.9074 0.266
63.9179 0.398
63.9284 0.398
63.9390 0.511
63.9495 0.470
63.9600 0.562
63.9705 0.449
63.9811 0.286
63.9916 0.500
64.0021 0.511
64.0126 0.480
64.0231 0.582
64.0337 0.623
64.0442 0.674
64.0547 0.643
64.0652 0.572
64.0758 0.572
64.0863 0.603
64.0968 0.603
64.1073 0.592
64.1178 0.582
64.1284 0.654
64.1389 0.694
64.1494 0.592
64.1599 0.398
64.1705 0.511
64.1810 0.480
64.1915 0.419
64.2020 0.378
64.2126 0.408
64.2231 0.460
64.2336 0.306
64.2441 0.337
64.2546 0.368
64.2652 0.245
64.2757 0.306
64.2862 0.276
64.2967 0.398
64.3073 0.286
64.3178 0.214
64.3283 0.286
64.3388 0.245
64.3493 0.286
64.3599 0.317
64.3704 0.266
64.3809 0.306
64.3914 0.225
64.4020 0.368
64.4125 0.245
64.4230 0.317
64.4335 0.245
64.4440 0.174
64.4546 0.225
64.4651 0.235
64.4756 0.276
64.4861 0.184
64.4967 0.357
64.5072 0.214
64.5177 0.266
64.5282 0.112
64.5388 0.245
64.5493 0.245
64.5598 0.235
64.5703 0.133
64.5808 0.133
64.5914 0.204
64.6019 0.235
64.6124 0.317
64.6229 0.235
64.6335 0.317
64.6440 0.204
64.6545 0.255
64.6650 0.184
64.6755 0.235
64.6861 0.306
64.6966 0.235
64.7071 0.368
64.7176 0.194
64.7282 0.337
64.7387 0.204
64.7492 0.296
64.7597 0.296
64.7703 0.327
64.7808 0.194
64.7913 0.368
64.8018 0.317
64.8123 0.388
64.8229 0.143
64.8334 0.296
64.8439 0.235
64.8544 0.255
64.8650 0.306
64.8755 0.174
64.8860 0.276
64.8965 0.214
64.9070 0.184
64.9176 0.225
64.9281 0.225
64.9386 0.317
64.9491 0.153
64.9597 0.337
64.9702 0.225
64.9807 0.174
64.9912 0.184
65.0017 0.327
65.0123 0.194
65.0228 0.184
65.0333 0.214
65.0438 0.153
65.0544 0.204
65.0649 0.174
65.0754 0.214
65.0859 0.133
65.0965 0.194
65.1070 0.276
65.1175 0.276
65.1280 0.276
65.1385 0.255
65.1491 0.174
65.1596 0.184
65.1701 0.194
65.1806 0.255
65.1912 0.235
65.2017 0.194
65.2122 0.235
65.2227 0.235
65.2332 0.174
65.2438 0.317
65.2543 0.266
65.2648 0.174
65.2753 0.235
65.2859 0.266
65.2964 0.214
65.3069 0.214
65.3174 0.317
65.3279 0.204
65.3385 0.194
65.3490 0.184
65.3595 0.102
65.3700 0.296
65.3806 0.184
65.3911 0.163
65.4016 0.214
65.4121 0.235
65.4227 0.327
65.4332 0.163
65.4437 0.317
65.4542 0.225
65.4647 0.266
65.4753 0.194
65.4858 0.286
65.4963 0.153
65.5068 0.306
65.5174 0.276
65.5279 0.286
65.5384 0.286
65.5489 0.214
65.5594 0.286
65.5700 0.296
65.5805 0.317
65.5910 0.245
65.6015 0.255
65.6121 0.296
65.6226 0.204
65.6331 0.296
65.6436 0.337
65.6542 0.235
65.6647 0.286
65.6752 0.245
65.6857 0.245
65.6962 0.317
65.7068 0.163
65.7173 0.368
65.7278 0.266
65.7383 0.255
65.7489 0.255
65.7594 0.204
65.7699 0.194
65.7804 0.266
65.7909 0.327
65.8015 0.214
65.8120 0.368
65.8225 0.266
65.8330 0.327
65.8436 0.327
65.8541 0.368
65.8646 0.408
65.8751 0.368
65.8856 0.306
65.8962 0.460
65.9067 0.460
65.9172 0.449
65.9277 0.470
65.9383 0.500
65.9488 0.460
65.9593 0.378
65.9698 0.521
65.9804 0.470
65.9909 0.511
66.0014 0.541
66.0119 0.562
66.0224 0.500
66.0330 0.592
66.0435 0.705
66.0540 0.633
66.0645 0.521
66.0751 0.490
66.0856 0.654
66.0961 0.562
66.1066 0.500
66.1171 0.511
66.1277 0.490
66.1382 0.500
66.1487 0.592
66.1592 0.347
66.1698 0.460
66.1803 0.460
66.1908 0.521
66.2013 0.490
66.2119 0.429
66.2224 0.398
66.2329 0.603
66.2434 0.562
66.2539 0.603
66.2645 0.562
66.2750 0.766
66.2855 0.684
66.2960 0.623
66.3066 0.674
66.3171 0.837
66.3276 0.878
66.3381 0.878
66.3486 1.123
66.3592 1.083
66.3697 0.888
66.3802 1.093
66.3907 0.980
66.4013 1.256
66.4118 1.062
66.4223 1.277
66.4328 1.195
66.4433 1.307
66.4539 1.215
66.4644 1.062
66.4749 0.950
66.4854 1.042
66.4960 1.001
66.5065 0.837
66.5170 0.919
66.5275 0.592
66.5381 0.756
66.5486 0.756
66.5591 0.725
66.5696 0.613
66.5801 0.694
66.5907 0.480
66.6012 0.592
66.6117 0.592
66.6222 0.582
66.6328 0.408
66.6433 0.388
66.6538 0.419
66.6643 0.460
66.6748 0.347
66.6854 0.306
66.6959 0.460
66.7064 0.347
66.7169 0.296
66.7275 0.286
66.7380 0.337
66.7485 0.347
66.7590 0.347
66.7695 0.327
66.7801 0.306
66.7906 0.337
66.8011 0.214
66.8116 0.255
66.8222 0.347
66.8327 0.327
66.8432 0.235
66.8537 0.255
66.8643 0.194
66.8748 0.306
66.8853 0.174
66.8958 0.225
66.9063 0.214
66.9169 0.266
66.9274 0.235
66.9379 0.204
66.9484 0.235
66.9590 0.225
66.9695 0.255
66.9800 0.225
66.9905 0.194
67.0010 0.204
67.0116 0.286
67.0221 0.174
67.0326 0.276
67.0431 0.266
67.0537 0.255
67.0642 0.245
67.0747 0.296
67.0852 0.317
67.0958 0.245
67.1063 0.266
67.1168 0.266
67.1273 0.225
67.1378 0.317
67.1484 0.317
67.1589 0.337
67.1694 0.245
67.1799 0.378
67.1905 0.419
67.2010 0.317
67.2115 0.511
67.2220 0.429
67.2325 0.470
67.2431 0.388
67.2536 0.500
67.2641 0.449
67.2746 0.357
67.2852 0.429
67.2957 0.521
67.3062 0.337
67.3167 0.398
67.3272 0.378
67.3378 0.480
67.3483 0.490
67.3588 0.521
67.3693 0.766
67.3799 0.582
67.3904 0.694
67.4009 0.511
67.4114 0.592
67.4220 0.756
67.4325 0.633
67.4430 0.725
67.4535 0.899
67.4640 0.786
67.4746 0.970
67.4851 0.950
67.4956 0.899
67.5061 0.970
67.5167 1.164
67.5272 0.848
67.5377 0.899
67.5482 1.001
67.5587 0.786
67.5693 0.960
67.5798 0.909
67.5903 0.929
67.6008 0.888
67.6114 0.797
67.6219 0.888
67.6324 0.786
67.6429 0.684
67.6534 0.766
67.6640 0.848
67.6745 0.592
67.6850 0.531
67.6955 0.592
67.7061 0.643
67.7166 0.562
67.7271 0.500
67.7376 0.347
67.7482 0.480
67.7587 0.480
67.7692 0.470
67.7797 0.235
67.7902 0.460
67.8008 0.460
67.8113 0.388
67.8218 0.368
67.8323 0.347
67.8429 0.470
67.8534 0.388
67.8639 0.388
67.8744 0.357
67.8849 0.214
67.8955 0.286
67.9060 0.378
67.9165 0.317
67.9270 0.286
67.9376 0.368
67.9481 0.347
67.9586 0.368
67.9691 0.245
67.9797 0.327
67.9902 0.368
68.0007 0.306
68.0112 0.327
68.0217 0.286
68.0323 0.245
68.0428 0.378
68.0533 0.317
68.0638 0.388
68.0744 0.398
68.0849 0.245
68.0954 0.368
68.1059 0.408
68.1164 0.368
68.1270 0.398
68.1375 0.388
68.1480 0.408
68.1585 0.408
68.1691 0.500
68.1796 0.470
68.1901 0.419
68.2006 0.337
68.2111 0.388
68.2217 0.408
68.2322 0.388
68.2427 0.408
68.2532 0.531
68.2638 0.531
68.2743 0.347
68.2848 0.398
68.2953 0.408
68.3059 0.378
68.3164 0.306
68.3269 0.347
68.3374 0.551
68.3479 0.419
68.3585 0.398
68.3690 0.449
68.3795 0.470
68.3900 0.368
68.4006 0.439
68.4111 0.408
68.4216 0.286
68.4321 0.398
68.4426 0.449
68.4532 0.419
68.4637 0.470
68.4742 0.286
68.4847 0.306
68.4953 0.286
68.5058 0.306
68.5163 0.347
68.5268 0.296
68.5373 0.245
68.5479 0.306
68.5584 0.286
68.5689 0.317
68.5794 0.235
68.5900 0.214
68.6005 0.357
68.6110 0.214
68.6215 0.255
68.6321 0.255
68.6426 0.276
68.6531 0.174
68.6636 0.296
68.6741 0.245
68.6847 0.245
68.6952 0.214
68.7057 0.214
68.7162 0.184
68.7268 0.235
68.7373 0.143
68.7478 0.306
68.7583 0.153
68.7688 0.204
68.7794 0.153
68.7899 0.174
68.8004 0.112
68.8109 0.194
68.8215 0.194
68.8320 0.225
68.8425 0.143
68.8530 0.174
68.8636 0.153
68.8741 0.174
68.8846 0.143
68.8951 0.235
68.9056 0.163
68.9162 0.174
68.9267 0.266
68.9372 0.163
68.9477 0.245
68.9583 0.194
68.9688 0.163
68.9793 0.184
68.9898 0.204
69.0003 0.214
69.0109 0.174
69.0214 0.184
69.0319 0.153
69.0424 0.214
69.0530 0.163
69.0635 0.204
69.0740 0.235
69.0845 0.184
69.0950 0.153
69.1056 0.184
69.1161 0.255
69.1266 0.204
69.1371 0.204
69.1477 0.255
69.1582 0.255
69.1687 0.235
69.1792 0.266
69.1898 0.174
69.2003 0.174
69.2108 0.255
69.2213 0.306
69.2318 0.225
69.2424 0.204
69.2529 0.245
69.2634 0.276
69.2739 0.204
69.2845 0.317
69.2950 0.255
69.3055 0.296
69.3160 0.480
69.3265 0.296
69.3371 0.286
69.3476 0.255
69.3581 0.398
69.3686 0.378
69.3792 0.439
69.3897 0.388
69.4002 0.419
69.4107 0.521
69.4212 0.460
69.4318 0.541
69.4423 0.398
69.4528 0.460
69.4633 0.490
69.4739 0.592
69.4844 0.562
69.4949 0.531
69.5054 0.725
69.5160 0.541
69.5265 0.613
69.5370 0.633
69.5475 0.592
69.5580 0.500
69.5686 0.480
69.5791 0.531
69.5896 0.368
69.6001 0.592
69.6107 0.490
69.6212 0.490
69.6317 0.490
69.6422 0.439
69.6527 0.419
69.6633 0.460
69.6738 0.357
69.6843 0.378
69.6948 0.368
69.7054 0.408
69.7159 0.337
69.7264 0.347
69.7369 0.480
69.7475 0.408
69.7580 0.347
69.7685 0.327
69.7790 0.276
69.7895 0.357
69.8001 0.286
69.8106 0.214
69.8211 0.286
69.8316 0.357
69.8422 0.449
69.8527 0.378
69.8632 0.460
69.8737 0.266
69.8842 0.378
69.8948 0.255
69.9053 0.337
69.9158 0.357
69.9263 0.419
69.9369 0.419
69.9474 0.388
69.9579 0.337
69.9684 0.480
69.9789 0.480
69.9895 0.347
70.0000 0.551
70.0105 0.633
70.0210 0.603
70.0316 0.694
70.0421 0.766
70.0526 0.674
70.0631 0.786
70.0737 0.858
70.0842 0.756
70.0947 0.909
70.1052 0.858
70.1157 0.991
70.1263 0.807
70.1368 1.205
70.1473 1.093
70.1578 1.195
70.1684 1.062
70.1789 1.511
70.1894 1.624
70.1999 1.174
70.2104 1.134
70.2210 1.450
70.2315 1.491
70.2420 1.481
70.2525 1.368
70.2631 1.338
70.2736 1.420
70.2841 1.511
70.2946 1.583
70.3052 1.522
70.3157 1.215
70.3262 1.328
70.3367 1.348
70.3472 1.256
70.3578 1.246
70.3683 1.103
70.3788 0.991
70.3893 1.021
70.3999 0.827
70.4104 0.950
70.4209 0.735
70.4314 0.766
70.4419 0.664
70.4525 0.664
70.4630 0.684
70.4735 0.633
70.4840 0.603
70.4946 0.776
70.5051 0.664
70.5156 0.572
70.5261 0.541
70.5366 0.398
70.5472 0.490
70.5577 0.449
70.5682 0.449
70.5787 0.368
70.5893 0.449
70.5998 0.317
70.6103 0.337
70.6208 0.388
70.6314 0.408
70.6419 0.378
70.6524 0.235
70.6629 0.245
70.6734 0.357
70.6840 0.286
70.6945 0.296
70.7050 0.296
70.7155 0.286
70.7261 0.214
70.7366 0.306
70.7471 0.184
70.7576 0.357
70.7681 0.266
70.7787 0.368
70.7892 0.296
70.7997 0.296
70.8102 0.255
70.8208 0.347
70.8313 0.337
70.8418 0.235
70.8523 0.245
70.8628 0.214
70.8734 0.317
70.8839 0.194
70.8944 0.266
70.9049 0.266
70.9155 0.245
70.9260 0.235
70.9365 0.214
70.9470 0.276
70.9576 0.204
70.9681 0.204
70.9786 0.317
70.9891 0.235
70.9996 0.255
71.0102 0.143
71.0207 0.163
71.0312 0.214
71.0417 0.225
71.0523 0.235
71.0628 0.194
71.0733 0.204
71.0838 0.112
71.0943 0.184
71.1049 0.235
71.1154 0.286
71.1259 0.214
71.1364 0.143
71.1470 0.174
71.1575 0.266
71.1680 0.245
71.1785 0.266
71.1891 0.214
71.1996 0.225
71.2101 0.347
71.2206 0.266
71.2311 0.225
71.2417 0.266
71.2522 0.306
71.2627 0.286
71.2732 0.398
71.2838 0.286
71.2943 0.317
71.3048 0.296
71.3153 0.357
71.3258 0.449
71.3364 0.460
71.3469 0.439
71.3574 0.408
71.3679 0.449
71.3785 0.408
71.3890 0.398
71.3995 0.470
71.4100 0.460
71.4205 0.368
71.4311 0.449
71.4416 0.592
71.4521 0.613
71.4626 0.541
71.4732 0.551
71.4837 0.603
71.4942 0.541
71.5047 0.521
71.5153 0.613
71.5258 0.531
71.5363 0.562
71.5468 0.551
71.5573 0.654
71.5679 0.511
71.5784 0.531
71.5889 0.521
71.5994 0.449
71.6100 0.551
71.6205 0.572
71.6310 0.490
71.6415 0.511
71.6520 0.562
71.6626 0.572
71.6731 0.551
71.6836 0.368
71.6941 0.490
71.7047 0.449
71.7152 0.551
71.7257 0.378
71.7362 0.357
71.7467 0.449
71.7573 0.449
71.7678 0.429
71.7783 0.388
71.7888 0.500
71.7994 0.439
71.8099 0.378
71.8204 0.378
71.8309 0.296
71.8415 0.398
71.8520 0.439
71.8625 0.347
71.8730 0.408
71.8835 0.357
71.8941 0.562
71.9046 0.408
71.9151 0.500
71.9256 0.531
71.9362 0.541
71.9467 0.531
71.9572 0.500
71.9677 0.572
71.9782 0.603
71.9888 0.551
71.9993 0.490
72.0098 0.592
72.0203 0.460
72.0309 0.592
72.0414 0.582
72.0519 0.603
72.0624 0.725
72.0730 0.674
72.0835 0.797
72.0940 0.674
72.1045 0.664
72.1150 0.654
72.1256 0.643
72.1361 0.756
72.1466 0.562
72.1571 0.837
72.1677 0.715
72.1782 0.715
72.1887 0.694
72.1992 0.817
72.2097 0.878
72.2203 0.817
72.2308 0.837
72.2413 0.991
72.2518 0.827
72.2624 1.205
72.2729 1.103
72.2834 1.021
72.2939 1.042
72.3044 1.144
72.3150 1.399
72.3255 1.552
72.3360 1.185
72.3465 1.328
72.3571 1.399
72.3676 1.399
72.3781 1.113
72.3886 1.307
72.3992 1.348
72.4097 1.215
72.4202 1.348
72.4307 1.460
72.4412 1.491
72.4518 1.328
72.4623 1.317
72.4728 1.348
72.4833 1.379
72.4939 1.328
72.5044 1.256
72.5149 1.062
72.5254 1.154
72.5359 1.062
72.5465 0.919
72.5570 0.960
72.5675 1.093
72.5780 0.817
72.5886 0.888
72.5991 0.756
72.6096 0.674
72.6201 0.674
72.6306 0.572
72.6412 0.735
72.6517 0.654
72.6622 0.511
72.6727 0.378
72.6833 0.725
72.6938 0.470
72.7043 0.480
72.7148 0.521
72.7254 0.429
72.7359 0.439
72.7464 0.368
72.7569 0.317
72.7674 0.296
72.7780 0.306
72.7885 0.306
72.7990 0.327
72.8095 0.286
72.8201 0.337
72.8306 0.255
72.8411 0.235
72.8516 0.296
72.8621 0.378
72.8727 0.327
72.8832 0.296
72.8937 0.255
72.9042 0.276
72.9148 0.184
72.9253 0.357
72.9358 0.327
72.9463 0.245
72.9569 0.204
72.9674 0.214
72.9779 0.286
72.9884 0.306
72.9989 0.184
73.0095 0.163
73.0200 0.245
73.0305 0.276
73.0410 0.163
73.0516 0.296
73.0621 0.235
73.0726 0.225
73.0831 0.245
73.0936 0.174
73.1042 0.214
73.1147 0.255
73.1252 0.214
73.1357 0.286
73.1463 0.225
73.1568 0.194
73.1673 0.398
73.1778 0.204
73.1883 0.225
73.1989 0.296
73.2094 0.204
73.2199 0.255
73.2304 0.255
73.2410 0.276
73.2515 0.235
73.2620 0.143
73.2725 0.266
73.2831 0.306
73.2936 0.286
73.3041 0.204
73.3146 0.245
73.3251 0.286
73.3357 0.266
73.3462 0.245
73.3567 0.245
73.3672 0.317
73.3778 0.255
73.3883 0.276
73.3988 0.337
73.4093 0.245
73.4198 0.347
73.4304 0.337
73.4409 0.317
73.4514 0.306
73.4619 0.317
73.4725 0.398
73.4830 0.327
73.4935 0.347
73.5040 0.500
73.5146 0.398
73.5251 0.378
73.5356 0.551
73.5461 0.562
73.5566 0.419
73.5672 0.429
73.5777 0.541
73.5882 0.541
73.5987 0.480
73.6093 0.398
73.6198 0.398
73.6303 0.572
73.6408 0.582
73.6513 0.603
73.6619 0.470
73.6724 0.419
73.6829 0.317
73.6934 0.521
73.7040 0.347
73.7145 0.378
73.7250 0.480
73.7355 0.245
73.7460 0.286
73.7566 0.347
73.7671 0.337
73.7776 0.327
73.7881 0.408
73.7987 0.266
73.8092 0.194
73.8197 0.296
73.8302 0.296
73.8408 0.296
73.8513 0.317
73.8618 0.296
73.8723 0.276
73.8828 0.214
73.8934 0.327
73.9039 0.276
73.9144 0.194
73.9249 0.306
73.9355 0.194
73.9460 0.357
73.9565 0.368
73.9670 0.286
73.9775 0.327
73.9881 0.337
73.9986 0.266
74.0091 0.225
74.0196 0.327
74.0302 0.266
74.0407 0.245
74.0512 0.286
74.0617 0.306
74.0722 0.245
74.0828 0.286
74.0933 0.286
74.1038 0.286
74.1143 0.378
74.1249 0.368
74.1354 0.296
74.1459 0.296
74.1564 0.357
74.1670 0.286
74.1775 0.408
74.1880 0.429
74.1985 0.296
74.2090 0.531
74.2196 0.296
74.2301 0.419
74.2406 0.429
74.2511 0.398
74.2617 0.470
74.2722 0.470
74.2827 0.541
74.2932 0.715
74.3037 0.664
74.3143 0.654
74.3248 0.654
74.3353 0.705
74.3458 0.664
74.3564 1.042
74.3669 0.848
74.3774 0.623
74.3879 0.909
74.3985 0.929
74.4090 0.878
74.4195 0.960
74.4300 1.266
74.4405 1.083
74.4511 1.083
74.4616 1.072
74.4721 1.144
74.4826 1.083
74.4932 1.113
74.5037 1.011
74.5142 1.011
74.5247 0.919
74.5352 1.001
74.5458 0.746
74.5563 0.919
74.5668 0.613
74.5773 0.797
74.5879 0.725
74.5984 0.623
74.6089 0.715
74.6194 0.715
74.6299 0.511
74.6405 0.654
74.6510 0.551
74.6615 0.449
74.6720 0.408
74.6826 0.480
74.6931 0.439
74.7036 0.521
74.7141 0.500
74.7247 0.306
74.7352 0.368
74.7457 0.439
74.7562 0.388
74.7667 0.317
74.7773 0.286
74.7878 0.398
74.7983 0.296
74.8088 0.388
74.8194 0.296
74.8299 0.368
74.8404 0.357
74.8509 0.317
74.8614 0.286
74.8720 0.276
74.8825 0.327
74.8930 0.266
74.9035 0.296
74.9141 0.276
74.9246 0.255
74.9351 0.357
74.9456 0.296
74.9561 0.347
74.9667 0.286
74.9772 0.286
74.9877 0.317
74.9982 0.184
75.0088 0.266
75.0193 0.255
75.0298 0.296
75.0403 0.306
75.0509 0.347
75.0614 0.276
75.0719 0.306
75.0824 0.306
75.0929 0.398
75.1035 0.337
75.1140 0.347
75.1245 0.276
75.1350 0.429
75.1456 0.266
75.1561 0.204
75.1666 0.337
75.1771 0.378
75.1876 0.286
75.1982 0.245
75.2087 0.419
75.2192 0.306
75.2297 0.286
75.2403 0.368
75.2508 0.245
75.2613 0.357
75.2718 0.368
75.2824 0.337
75.2929 0.317
75.3034 0.408
75.3139 0.276
75.3244 0.255
75.3350 0.317
75.3455 0.276
75.3560 0.286
75.3665 0.347
75.3771 0.368
75.3876 0.357
75.3981 0.317
75.4086 0.378
75.4191 0.327
75.4297 0.286
75.4402 0.276
75.4507 0.306
75.4612 0.317
75.4718 0.347
75.4823 0.398
75.4928 0.235
75.5033 0.245
75.5138 0.204
75.5244 0.255
75.5349 0.214
75.5454 0.408
75.5559 0.286
75.5665 0.317
75.5770 0.276
75.5875 0.306
75.5980 0.306
75.6086 0.378
75.6191 0.337
75.6296 0.225
75.6401 0.317
75.6506 0.337
75.6612 0.317
75.6717 0.235
75.6822 0.337
75.6927 0.347
75.7033 0.306
75.7138 0.378
75.7243 0.480
75.7348 0.490
75.7453 0.368
75.7559 0.388
75.7664 0.541
75.7769 0.511
75.7874 0.337
75.7980 0.398
75.8085 0.439
75.8190 0.266
75.8295 0.327
75.8400 0.480
75.8506 0.378
75.8611 0.337
75.8716 0.429
75.8821 0.368
75.8927 0.357
75.9032 0.337
75.9137 0.357
75.9242 0.388
75.9348 0.347
75.9453 0.378
75.9558 0.337
75.9663 0.439
75.9768 0.327
75.9874 0.470
75.9979 0.449
76.0084 0.368
76.0189 0.419
76.0295 0.306
76.0400 0.449
76.0505 0.327
76.0610 0.337
76.0715 0.317
76.0821 0.388
76.0926 0.245
76.1031 0.296
76.1136 0.419
76.1242 0.276
76.1347 0.296
76.1452 0.317
76.1557 0.235
76.1663 0.460
76.1768 0.266
76.1873 0.276
76.1978 0.388
76.2083 0.398
76.2189 0.276
76.2294 0.357
76.2399 0.398
76.2504 0.368
76.2610 0.306
76.2715 0.357
76.2820 0.306
76.2925 0.357
76.3030 0.266
76.3136 0.327
76.3241 0.317
76.3346 0.327
76.3451 0.337
76.3557 0.327
76.3662 0.245
76.3767 0.296
76.3872 0.235
76.3977 0.245
76.4083 0.194
76.4188 0.398
76.4293 0.266
76.4398 0.235
76.4504 0.266
76.4609 0.255
76.4714 0.214
76.4819 0.245
76.4925 0.204
76.5030 0.153
76.5135 0.255
76.5240 0.153
76.5345 0.133
76.5451 0.204
76.5556 0.245
76.5661 0.143
76.5766 0.276
76.5872 0.184
76.5977 0.184
76.6082 0.163
76.6187 0.255
76.6292 0.143
76.6398 0.143
76.6503 0.174
76.6608 0.174
76.6713 0.153
76.6819 0.184
76.6924 0.184
76.7029 0.163
76.7134 0.214
76.7240 0.174
76.7345 0.204
76.7450 0.225
76.7555 0.082
76.7660 0.214
76.7766 0.184
76.7871 0.153
76.7976 0.194
76.8081 0.245
76.8187 0.163
76.8292 0.153
76.8397 0.143
76.8502 0.204
76.8607 0.204
76.8713 0.153
76.8818 0.123
76.8923 0.163
76.9028 0.174
76.9134 0.255
76.9239 0.225
76.9344 0.163
76.9449 0.174
76.9554 0.194
76.9660 0.143
76.9765 0.174
76.9870 0.153
76.9975 0.184
77.0081 0.235
77.0186 0.153
77.0291 0.112
77.0396 0.245
77.0502 0.163
77.0607 0.194
77.0712 0.143
77.0817 0.255
77.0922 0.225
77.1028 0.194
77.1133 0.184
77.1238 0.174
77.1343 0.184
77.1449 0.163
77.1554 0.112
77.1659 0.194
77.1764 0.153
77.1869 0.184
77.1975 0.143
77.2080 0.174
77.2185 0.214
77.2290 0.255
77.2396 0.266
77.2501 0.214
77.2606 0.153
77.2711 0.123
77.2816 0.225
77.2922 0.184
77.3027 0.225
77.3132 0.153
77.3237 0.235
77.3343 0.184
77.3448 0.184
77.3553 0.327
77.3658 0.235
77.3764 0.296
77.3869 0.266
77.3974 0.327
77.4079 0.337
77.4184 0.266
77.4290 0.214
77.4395 0.235
77.4500 0.255
77.4605 0.235
77.4711 0.296
77.4816 0.388
77.4921 0.347
77.5026 0.327
77.5131 0.347
77.5237 0.317
77.5342 0.337
77.5447 0.398
77.5552 0.296
77.5658 0.460
77.5763 0.439
77.5868 0.388
77.5973 0.439
77.6079 0.500
77.6184 0.245
77.6289 0.378
77.6394 0.357
77.6499 0.439
77.6605 0.572
77.6710 0.521
77.6815 0.562
77.6920 0.684
77.7026 0.521
77.7131 0.490
77.7236 0.531
77.7341 0.562
77.7446 0.643
77.7552 0.623
77.7657 0.460
77.7762 0.674
77.7867 0.654
77.7973 0.572
77.8078 0.521
77.8183 0.756
77.8288 0.633
77.8393 0.603
77.8499 0.694
77.8604 0.633
77.8709 0.633
77.8814 0.725
77.8920 0.827
77.9025 0.735
77.9130 0.827
77.9235 0.786
77.9341 0.858
77.9446 0.837
77.9551 0.868
77.9656 0.725
77.9761 0.827
77.9867 0.694
77.9972 0.848
78.0077 0.776
78.0182 0.674
78.0288 0.807
78.0393 0.776
78.0498 0.746
78.0603 0.776
78.0708 0.725
78.0814 0.531
78.0919 0.613
78.1024 0.725
78.1129 0.643
78.1235 0.592
78.1340 0.613
78.1445 0.746
78.1550 0.674
78.1655 0.562
78.1761 0.684
78.1866 0.419
78.1971 0.664
78.2076 0.449
78.2182 0.511
78.2287 0.327
78.2392 0.388
78.2497 0.480
78.2603 0.245
78.2708 0.388
78.2813 0.357
78.2918 0.368
78.3023 0.296
78.3129 0.368
78.3234 0.408
78.3339 0.470
78.3444 0.174
78.3550 0.286
78.3655 0.245
78.3760 0.306
78.3865 0.255
78.3970 0.347
78.4076 0.296
78.4181 0.276
78.4286 0.255
78.4391 0.235
78.4497 0.225
78.4602 0.245
78.4707 0.235
78.4812 0.255
78.4918 0.266
78.5023 0.286
78.5128 0.225
78.5233 0.286
78.5338 0.123
78.5444 0.214
78.5549 0.255
78.5654 0.204
78.5759 0.163
78.5865 0.092
78.5970 0.153
78.6075 0.235
78.6180 0.276
78.6285 0.194
78.6391 0.112
78.6496 0.143
78.6601 0.153
78.6706 0.296
78.6812 0.184
78.6917 0.123
78.7022 0.163
78.7127 0.102
78.7232 0.133
78.7338 0.245
78.7443 0.235
78.7548 0.143
78.7653 0.174
78.7759 0.133
78.7864 0.102
78.7969 0.133
78.8074 0.123
78.8180 0.163
78.8285 0.112
78.8390 0.194
78.8495 0.153
78.8600 0.174
78.8706 0.225
78.8811 0.163
78.8916 0.143
78.9021 0.194
78.9127 0.133
78.9232 0.163
78.9337 0.204
78.9442 0.092
78.9547 0.112
78.9653 0.153
78.9758 0.163
78.9863 0.143
78.9968 0.153
79.0074 0.123
79.0179 0.061
79.0284 0.051
79.0389 0.143
79.0494 0.102
79.0600 0.174
79.0705 0.184
79.0810 0.143
79.0915 0.153
79.1021 0.123
79.1126 0.112
79.1231 0.194
79.1336 0.153
79.1442 0.112
79.1547 0.184
79.1652 0.092
79.1757 0.123
79.1862 0.143
79.1968 0.184
79.2073 0.153
79.2178 0.153
79.2283 0.112
79.2389 0.194
79.2494 0.184
79.2599 0.112
79.2704 0.123
79.2809 0.194
79.2915 0.143
79.3020 0.184
79.3125 0.133
79.3230 0.143
79.3336 0.184
79.3441 0.163
79.3546 0.092
79.3651 0.184
79.3757 0.204
79.3862 0.143
79.3967 0.266
79.4072 0.184
79.4177 0.143
79.4283 0.123
79.4388 0.092
79.4493 0.092
79.4598 0.184
79.4704 0.133
79.4809 0.112
79.4914 0.225
79.5019 0.174
79.5124 0.133
79.5230 0.143
79.5335 0.102
79.5440 0.174
79.5545 0.163
79.5651 0.133
79.5756 0.082
79.5861 0.266
79.5966 0.245
79.6071 0.174
79.6177 0.133
79.6282 0.143
79.6387 0.174
79.6492 0.204
79.6598 0.092
79.6703 0.153
79.6808 0.123
79.6913 0.225
79.7019 0.123
79.7124 0.143
79.7229 0.194
79.7334 0.112
79.7439 0.163
79.7545 0.092
79.7650 0.194
79.7755 0.204
79.7860 0.214
79.7966 0.143
79.8071 0.174
79.8176 0.184
79.8281 0.143
79.8386 0.123
79.8492 0.204
79.8597 0.174
79.8702 0.163
79.8807 0.255
79.8913 0.296
79.9018 0.133
79.9123 0.174
79.9228 0.143
79.9333 0.174
79.9439 0.225
79.9544 0.112
79.9649 0.317
79.9754 0.286
79.9860 0.163
79.9965 0.204
80.0070 0.204
