10.0000 0.827
10.0105 0.858
10.0210 0.960
10.0316 1.011
10.0421 1.001
10.0526 0.929
10.0631 1.031
10.0737 0.960
10.0842 0.888
10.0947 0.991
10.1052 0.909
10.1157 0.878
10.1263 1.154
10.1368 1.011
10.1473 0.837
10.1578 0.980
10.1684 0.878
10.1789 1.093
10.1894 0.899
10.1999 0.929
10.2105 0.858
10.2210 1.011
10.2315 0.746
10.2420 0.868
10.2525 0.868
10.2631 0.940
10.2736 0.899
10.2841 0.919
10.2946 0.878
10.3052 0.970
10.3157 0.950
10.3262 0.899
10.3367 0.909
10.3472 0.705
10.3578 0.970
10.3683 0.940
10.3788 0.960
10.3893 0.715
10.3999 0.858
10.4104 0.929
10.4209 0.909
10.4314 1.164
10.4420 0.848
10.4525 0.878
10.4630 0.970
10.4735 0.776
10.4840 0.919
10.4946 0.827
10.5051 0.929
10.5156 0.807
10.5261 1.072
10.5367 0.817
10.5472 0.991
10.5577 0.950
10.5682 0.899
10.5787 0.776
10.5893 0.858
10.5998 0.725
10.6103 0.878
10.6208 0.929
10.6314 0.705
10.6419 0.766
10.6524 0.858
10.6629 0.766
10.6734 0.786
10.6840 1.001
10.6945 0.817
10.7050 1.011
10.7155 0.756
10.7261 0.848
10.7366 0.929
10.7471 0.807
10.7576 0.940
10.7682 0.909
10.7787 1.021
10.7892 0.909
10.7997 1.042
10.8102 0.817
10.8208 0.878
10.8313 1.021
10.8418 0.797
10.8523 0.888
10.8629 0.807
10.8734 0.674
10.8839 0.807
10.8944 0.746
10.9049 0.858
10.9155 1.011
10.9260 0.899
10.9365 0.909
10.9470 0.827
10.9576 0.776
10.9681 1.011
10.9786 0.746
10.9891 0.827
10.9996 0.817
11.0102 0.909
11.0207 0.888
11.0312 0.848
11.0417 0.837
11.0523 0.776
11.0628 0.817
11.0733 0.715
11.0838 0.848
11.0944 0.837
11.1049 0.776
11.1154 0.654
11.1259 0.664
11.1364 0.827
11.1470 0.654
11.1575 0.929
11.1680 0.684
11.1785 0.909
11.1891 0.725
11.1996 0.725
11.2101 0.807
11.2206 0.888
11.2311 0.746
11.2417 0.756
11.2522 0.909
11.2627 0.776
11.2732 0.807
11.2838 0.858
11.2943 0.746
11.3048 0.797
11.3153 0.766
11.3259 0.674
11.3364 0.807
11.3469 0.807
11.3574 0.684
11.3679 0.807
11.3785 0.827
11.3890 0.756
11.3995 0.531
11.4100 0.970
11.4206 0.807
11.4311 0.807
11.4416 0.705
11.4521 0.786
11.4626 0.633
11.4732 0.674
11.4837 0.684
11.4942 0.817
11.5047 0.807
11.5153 0.766
11.5258 0.909
11.5363 0.817
11.5468 0.705
11.5573 0.725
11.5679 0.848
11.5784 0.837
11.5889 0.786
11.5994 0.654
11.6100 0.684
11.6205 0.827
11.6310 0.684
11.6415 0.654
11.6521 0.776
11.6626 0.848
11.6731 0.766
11.6836 0.684
11.6941 0.797
11.7047 0.684
11.7152 0.766
11.7257 0.725
11.7362 0.603
11.7468 0.878
11.7573 0.797
11.7678 0.848
11.7783 0.827
11.7888 0.858
11.7994 0.970
11.8099 0.776
11.8204 0.858
11.8309 0.827
11.8415 0.694
11.8520 0.766
11.8625 0.643
11.8730 0.694
11.8835 0.735
11.8941 0.746
11.9046 0.837
11.9151 0.705
11.9256 0.715
11.9362 0.888
11.9467 0.817
11.9572 0.797
11.9677 0.837
11.9783 0.868
11.9888 0.623
11.9993 0.746
12.0098 0.786
12.0203 0.694
12.0309 0.684
12.0414 0.868
12.0519 0.756
12.0624 0.684
12.0730 0.715
12.0835 0.674
12.0940 0.664
12.1045 0.848
12.1150 0.786
12.1256 0.684
12.1361 0.572
12.1466 0.592
12.1571 0.674
12.1677 0.725
12.1782 0.888
12.1887 0.541
12.1992 0.735
12.2098 0.603
12.2203 0.766
12.2308 0.848
12.2413 0.613
12.2518 0.735
12.2624 0.797
12.2729 0.633
12.2834 0.562
12.2939 0.725
12.3045 0.684
12.3150 0.766
12.3255 1.021
12.3360 0.654
12.3465 0.725
12.3571 0.674
12.3676 0.746
12.3781 0.766
12.3886 0.633
12.3992 0.735
12.4097 0.654
12.4202 0.756
12.4307 0.766
12.4412 0.694
12.4518 0.623
12.4623 0.705
12.4728 0.551
12.4833 0.776
12.4939 0.746
12.5044 0.643
12.5149 0.848
12.5254 0.766
12.5360 0.633
12.5465 0.613
12.5570 0.643
12.5675 0.551
12.5780 0.705
12.5886 0.807
12.5991 0.633
12.6096 0.725
12.6201 0.735
12.6307 0.797
12.6412 0.613
12.6517 0.756
12.6622 0.807
12.6727 0.633
12.6833 0.776
12.6938 0.725
12.7043 0.776
12.7148 0.725
12.7254 0.562
12.7359 0.572
12.7464 0.705
12.7569 0.715
12.7674 0.776
12.7780 0.797
12.7885 0.643
12.7990 0.797
12.8095 0.837
12.8201 0.715
12.8306 0.715
12.8411 0.694
12.8516 0.715
12.8622 0.572
12.8727 0.715
12.8832 0.664
12.8937 0.827
12.9042 0.582
12.9148 0.797
12.9253 0.694
12.9358 0.797
12.9463 0.674
12.9569 0.551
12.9674 0.603
12.9779 0.521
12.9884 0.684
12.9989 0.531
13.0095 0.643
13.0200 0.603
13.0305 0.735
13.0410 0.613
13.0516 0.470
13.0621 0.603
13.0726 0.592
13.0831 0.715
13.0937 0.572
13.1042 0.756
13.1147 0.664
13.1252 0.633
13.1357 0.633
13.1463 0.603
13.1568 0.582
13.1673 0.735
13.1778 0.623
13.1884 0.807
13.1989 0.603
13.2094 0.654
13.2199 0.521
13.2304 0.684
13.2410 0.562
13.2515 0.592
13.2620 0.582
13.2725 0.490
13.2831 0.633
13.2936 0.643
13.3041 0.592
13.3146 0.643
13.3251 0.603
13.3357 0.715
13.3462 0.572
13.3567 0.643
13.3672 0.694
13.3778 0.582
13.3883 0.654
13.3988 0.623
13.4093 0.603
13.4199 0.521
13.4304 0.592
13.4409 0.551
13.4514 0.705
13.4619 0.572
13.4725 0.633
13.4830 0.562
13.4935 0.603
13.5040 0.541
13.5146 0.694
13.5251 0.603
13.5356 0.633
13.5461 0.654
13.5566 0.439
13.5672 0.623
13.5777 0.694
13.5882 0.592
13.5987 0.664
13.6093 0.643
13.6198 0.664
13.6303 0.603
13.6408 0.603
13.6514 0.715
13.6619 0.511
13.6724 0.633
13.6829 0.674
13.6934 0.551
13.7040 0.725
13.7145 0.572
13.7250 0.603
13.7355 0.572
13.7461 0.674
13.7566 0.633
13.7671 0.643
13.7776 0.756
13.7881 0.633
13.7987 0.715
13.8092 0.654
13.8197 0.592
13.8302 0.490
13.8408 0.654
13.8513 0.664
13.8618 0.562
13.8723 0.592
13.8828 0.633
13.8934 0.643
13.9039 0.643
13.9144 0.592
13.9249 0.633
13.9355 0.592
13.9460 0.603
13.9565 0.500
13.9670 0.521
13.9776 0.541
13.9881 0.511
13.9986 0.705
14.0091 0.643
14.0196 0.592
14.0302 0.715
14.0407 0.562
14.0512 0.674
14.0617 0.674
14.0723 0.643
14.0828 0.613
14.0933 0.521
14.1038 0.613
14.1143 0.705
14.1249 0.613
14.1354 0.643
14.1459 0.633
14.1564 0.541
14.1670 0.674
14.1775 0.511
14.1880 0.511
14.1985 0.766
14.2090 0.511
14.2196 0.684
14.2301 0.480
14.2406 0.582
14.2511 0.766
14.2617 0.613
14.2722 0.572
14.2827 0.592
14.2932 0.725
14.3038 0.735
14.3143 0.531
14.3248 0.541
14.3353 0.582
14.3458 0.592
14.3564 0.654
14.3669 0.531
14.3774 0.654
14.3879 0.562
14.3985 0.541
14.4090 0.511
14.4195 0.490
14.4300 0.562
14.4405 0.541
14.4511 0.460
14.4616 0.664
14.4721 0.623
14.4826 0.756
14.4932 0.664
14.5037 0.633
14.5142 0.633
14.5247 0.511
14.5353 0.500
14.5458 0.470
14.5563 0.572
14.5668 0.521
14.5773 0.531
14.5879 0.419
14.5984 0.582
14.6089 0.541
14.6194 0.623
14.6300 0.551
14.6405 0.500
14.6510 0.562
14.6615 0.633
14.6720 0.643
14.6826 0.592
14.6931 0.623
14.7036 0.572
14.7141 0.439
14.7247 0.633
14.7352 0.572
14.7457 0.623
14.7562 0.541
14.7667 0.582
14.7773 0.388
14.7878 0.603
14.7983 0.603
14.8088 0.500
14.8194 0.490
14.8299 0.541
14.8404 0.582
14.8509 0.674
14.8615 0.643
14.8720 0.551
14.8825 0.603
14.8930 0.562
14.9035 0.480
14.9141 0.603
14.9246 0.521
14.9351 0.470
14.9456 0.623
14.9562 0.541
14.9667 0.562
14.9772 0.643
14.9877 0.592
14.9982 0.439
15.0088 0.715
15.0193 0.490
15.0298 0.531
15.0403 0.613
15.0509 0.500
15.0614 0.531
15.0719 0.378
15.0824 0.623
15.0929 0.572
15.1035 0.613
15.1140 0.521
15.1245 0.500
15.1350 0.551
15.1456 0.654
15.1561 0.735
15.1666 0.500
15.1771 0.531
15.1877 0.439
15.1982 0.541
15.2087 0.654
15.2192 0.572
15.2297 0.500
15.2403 0.531
15.2508 0.705
15.2613 0.521
15.2718 0.500
15.2824 0.613
15.2929 0.439
15.3034 0.531
15.3139 0.511
15.3244 0.643
15.3350 0.582
15.3455 0.500
15.3560 0.766
15.3665 0.562
15.3771 0.684
15.3876 0.572
15.3981 0.500
15.4086 0.684
15.4192 0.592
15.4297 0.582
15.4402 0.572
15.4507 0.684
15.4612 0.551
15.4718 0.633
15.4823 0.470
15.4928 0.490
15.5033 0.551
15.5139 0.572
15.5244 0.470
15.5349 0.490
15.5454 0.613
15.5559 0.531
15.5665 0.582
15.5770 0.541
15.5875 0.429
15.5980 0.613
15.6086 0.511
15.6191 0.541
15.6296 0.511
15.6401 0.470
15.6506 0.449
15.6612 0.490
15.6717 0.623
15.6822 0.500
15.6927 0.480
15.7033 0.572
15.7138 0.429
15.7243 0.541
15.7348 0.541
15.7454 0.674
15.7559 0.551
15.7664 0.470
15.7769 0.460
15.7874 0.521
15.7980 0.521
15.8085 0.541
15.8190 0.592
15.8295 0.551
15.8401 0.592
15.8506 0.480
15.8611 0.633
15.8716 0.592
15.8821 0.541
15.8927 0.572
15.9032 0.368
15.9137 0.480
15.9242 0.521
15.9348 0.460
15.9453 0.439
15.9558 0.582
15.9663 0.449
15.9768 0.603
15.9874 0.521
15.9979 0.521
16.0084 0.439
16.0189 0.368
16.0295 0.541
16.0400 0.470
16.0505 0.378
16.0610 0.551
16.0716 0.500
16.0821 0.521
16.0926 0.541
16.1031 0.439
16.1136 0.490
16.1242 0.551
16.1347 0.582
16.1452 0.439
16.1557 0.541
16.1663 0.500
16.1768 0.521
16.1873 0.429
16.1978 0.480
16.2083 0.337
16.2189 0.470
16.2294 0.439
16.2399 0.613
16.2504 0.398
16.2610 0.439
16.2715 0.398
16.2820 0.449
16.2925 0.490
16.3031 0.562
16.3136 0.541
16.3241 0.684
16.3346 0.643
16.3451 0.582
16.3557 0.541
16.3662 0.500
16.3767 0.429
16.3872 0.572
16.3978 0.521
16.4083 0.592
16.4188 0.531
16.4293 0.531
16.4398 0.541
16.4504 0.592
16.4609 0.531
16.4714 0.633
16.4819 0.603
16.4925 0.562
16.5030 0.603
16.5135 0.551
16.5240 0.541
16.5345 0.500
16.5451 0.490
16.5556 0.551
16.5661 0.551
16.5766 0.541
16.5872 0.398
16.5977 0.582
16.6082 0.460
16.6187 0.562
16.6293 0.613
16.6398 0.490
16.6503 0.470
16.6608 0.551
16.6713 0.398
16.6819 0.603
16.6924 0.511
16.7029 0.449
16.7134 0.368
16.7240 0.603
16.7345 0.480
16.7450 0.531
16.7555 0.572
16.7660 0.623
16.7766 0.551
16.7871 0.551
16.7976 0.511
16.8081 0.521
16.8187 0.746
16.8292 0.531
16.8397 0.531
16.8502 0.725
16.8607 0.531
16.8713 0.603
16.8818 0.705
16.8923 0.643
16.9028 0.541
16.9134 0.694
16.9239 0.654
16.9344 0.776
16.9449 0.746
16.9555 0.756
16.9660 0.899
16.9765 0.888
16.9870 1.042
16.9975 1.185
17.0081 1.297
17.0186 1.174
17.0291 1.297
17.0396 1.481
17.0502 1.644
17.0607 1.859
17.0712 2.145
17.0817 2.604
17.0922 2.982
17.1028 3.391
17.1133 4.504
17.1238 4.606
17.1343 5.688
17.1449 6.056
17.1554 6.607
17.1659 7.935
17.1764 8.068
17.1870 8.946
17.1975 9.375
17.2080 8.987
17.2185 8.854
17.2290 7.853
17.2396 7.261
17.2501 6.720
17.2606 5.556
17.2711 4.493
17.2817 3.871
17.2922 3.145
17.3027 2.492
17.3132 2.165
17.3237 1.654
17.3343 1.736
17.3448 1.481
17.3553 1.368
17.3658 1.144
17.3764 1.062
17.3869 1.021
17.3974 0.888
17.4079 0.694
17.4184 0.960
17.4290 0.848
17.4395 0.868
17.4500 0.664
17.4605 0.705
17.4711 0.531
17.4816 0.582
17.4921 0.654
17.5026 0.613
17.5132 0.582
17.5237 0.674
17.5342 0.551
17.5447 0.613
17.5552 0.562
17.5658 0.419
17.5763 0.541
17.5868 0.521
17.5973 0.592
17.6079 0.592
17.6184 0.551
17.6289 0.633
17.6394 0.480
17.6499 0.490
17.6605 0.623
17.6710 0.408
17.6815 0.541
17.6920 0.470
17.7026 0.470
17.7131 0.480
17.7236 0.449
17.7341 0.408
17.7447 0.500
17.7552 0.531
17.7657 0.337
17.7762 0.511
17.7867 0.500
17.7973 0.490
17.8078 0.490
17.8183 0.511
17.8288 0.470
17.8394 0.511
17.8499 0.613
17.8604 0.551
17.8709 0.419
17.8814 0.470
17.8920 0.500
17.9025 0.388
17.9130 0.449
17.9235 0.490
17.9341 0.490
17.9446 0.531
17.9551 0.439
17.9656 0.470
17.9761 0.531
17.9867 0.327
17.9972 0.327
18.0077 0.541
18.0182 0.419
18.0288 0.470
18.0393 0.449
18.0498 0.562
18.0603 0.429
18.0709 0.347
18.0814 0.378
18.0919 0.368
18.1024 0.490
18.1129 0.562
18.1235 0.470
18.1340 0.480
18.1445 0.398
18.1550 0.480
18.1656 0.490
18.1761 0.317
18.1866 0.531
18.1971 0.398
18.2076 0.490
18.2182 0.470
18.2287 0.643
18.2392 0.460
18.2497 0.368
18.2603 0.306
18.2708 0.419
18.2813 0.480
18.2918 0.460
18.3023 0.419
18.3129 0.439
18.3234 0.439
18.3339 0.368
18.3444 0.368
18.3550 0.378
18.3655 0.439
18.3760 0.500
18.3865 0.582
18.3971 0.408
18.4076 0.408
18.4181 0.429
18.4286 0.490
18.4391 0.490
18.4497 0.408
18.4602 0.327
18.4707 0.449
18.4812 0.541
18.4918 0.388
18.5023 0.449
18.5128 0.449
18.5233 0.511
18.5338 0.449
18.5444 0.296
18.5549 0.470
18.5654 0.378
18.5759 0.531
18.5865 0.439
18.5970 0.317
18.6075 0.419
18.6180 0.429
18.6286 0.357
18.6391 0.378
18.6496 0.357
18.6601 0.480
18.6706 0.460
18.6812 0.460
18.6917 0.419
18.7022 0.368
18.7127 0.460
18.7233 0.388
18.7338 0.419
18.7443 0.439
18.7548 0.460
18.7653 0.347
18.7759 0.368
18.7864 0.490
18.7969 0.490
18.8074 0.500
18.8180 0.419
18.8285 0.480
18.8390 0.347
18.8495 0.429
18.8600 0.500
18.8706 0.460
18.8811 0.429
18.8916 0.408
18.9021 0.337
18.9127 0.490
18.9232 0.439
18.9337 0.357
18.9442 0.347
18.9548 0.286
18.9653 0.562
18.9758 0.460
18.9863 0.429
18.9968 0.470
19.0074 0.398
19.0179 0.500
19.0284 0.408
19.0389 0.449
19.0495 0.439
19.0600 0.419
19.0705 0.388
19.0810 0.419
19.0915 0.470
19.1021 0.398
19.1126 0.408
19.1231 0.408
19.1336 0.398
19.1442 0.460
19.1547 0.439
19.1652 0.398
19.1757 0.419
19.1862 0.500
19.1968 0.439
19.2073 0.470
19.2178 0.470
19.2283 0.419
19.2389 0.368
19.2494 0.429
19.2599 0.357
19.2704 0.460
19.2810 0.429
19.2915 0.449
19.3020 0.460
19.3125 0.306
19.3230 0.378
19.3336 0.460
19.3441 0.378
19.3546 0.388
19.3651 0.317
19.3757 0.500
19.3862 0.327
19.3967 0.439
19.4072 0.470
19.4177 0.511
19.4283 0.327
19.4388 0.388
19.4493 0.429
19.4598 0.306
19.4704 0.419
19.4809 0.327
19.4914 0.541
19.5019 0.480
19.5125 0.337
19.5230 0.266
19.5335 0.429
19.5440 0.388
19.5545 0.449
19.5651 0.306
19.5756 0.419
19.5861 0.276
19.5966 0.317
19.6072 0.388
19.6177 0.408
19.6282 0.398
19.6387 0.439
19.6492 0.460
19.6598 0.419
19.6703 0.439
19.6808 0.470
19.6913 0.439
19.7019 0.490
19.7124 0.439
19.7229 0.500
19.7334 0.429
19.7439 0.327
19.7545 0.317
19.7650 0.317
19.7755 0.419
19.7860 0.255
19.7966 0.419
19.8071 0.378
19.8176 0.388
19.8281 0.398
19.8387 0.327
19.8492 0.541
19.8597 0.388
19.8702 0.337
19.8807 0.500
19.8913 0.255
19.9018 0.429
19.9123 0.470
19.9228 0.470
19.9334 0.357
19.9439 0.408
19.9544 0.398
19.9649 0.408
19.9754 0.368
19.9860 0.398
19.9965 0.439
20.0070 0.419
20.0175 0.562
20.0281 0.490
20.0386 0.347
20.0491 0.551
20.0596 0.521
20.0701 0.368
20.0807 0.398
20.0912 0.337
20.1017 0.460
20.1122 0.460
20.1228 0.439
20.1333 0.286
20.1438 0.368
20.1543 0.531
20.1649 0.449
20.1754 0.317
20.1859 0.449
20.1964 0.449
20.2069 0.521
20.2175 0.347
20.2280 0.419
20.2385 0.460
20.2490 0.470
20.2596 0.368
20.2701 0.439
20.2806 0.439
20.2911 0.551
20.3016 0.368
20.3122 0.408
20.3227 0.439
20.3332 0.500
20.3437 0.480
20.3543 0.490
20.3648 0.582
20.3753 0.572
20.3858 0.592
20.3964 0.500
20.4069 0.490
20.4174 0.643
20.4279 0.500
20.4384 0.623
20.4490 0.429
20.4595 0.541
20.4700 0.419
20.4805 0.643
20.4911 0.582
20.5016 0.694
20.5121 0.797
20.5226 0.562
20.5331 0.766
20.5437 0.633
20.5542 0.746
20.5647 0.776
20.5752 0.684
20.5858 0.980
20.5963 0.950
20.6068 1.287
20.6173 1.399
20.6278 1.695
20.6384 2.022
20.6489 1.777
20.6594 2.196
20.6699 2.911
20.6805 3.227
20.6910 4.075
20.7015 4.728
20.7120 5.821
20.7226 7.343
20.7331 8.180
20.7436 9.773
20.7541 11.019
20.7646 11.703
20.7752 12.888
20.7857 13.613
20.7962 15.196
20.8067 15.462
20.8173 14.737
20.8278 13.583
20.8383 12.908
20.8488 10.733
20.8593 9.406
20.8699 7.251
20.8804 6.036
20.8909 5.709
20.9014 4.238
20.9120 3.605
20.9225 3.064
20.9330 2.798
20.9435 2.022
20.9541 1.910
20.9646 1.777
20.9751 1.379
20.9856 1.399
20.9961 1.287
21.0067 1.266
21.0172 0.970
21.0277 0.960
21.0382 0.878
21.0488 0.735
21.0593 0.817
21.0698 0.766
21.0803 0.715
21.0908 0.694
21.1014 0.674
21.1119 0.572
21.1224 0.531
21.1329 0.562
21.1435 0.531
21.1540 0.429
21.1645 0.551
21.1750 0.531
21.1855 0.654
21.1961 0.296
21.2066 0.592
21.2171 0.582
21.2276 0.357
21.2382 0.347
21.2487 0.378
21.2592 0.531
21.2697 0.368
21.2803 0.490
21.2908 0.490
21.3013 0.255
21.3118 0.347
21.3223 0.408
21.3329 0.460
21.3434 0.337
21.3539 0.449
21.3644 0.480
21.3750 0.357
21.3855 0.408
21.3960 0.337
21.4065 0.419
21.4170 0.357
21.4276 0.266
21.4381 0.337
21.4486 0.531
21.4591 0.449
21.4697 0.378
21.4802 0.419
21.4907 0.500
21.5012 0.337
21.5117 0.357
21.5223 0.500
21.5328 0.378
21.5433 0.531
21.5538 0.398
21.5644 0.398
21.5749 0.398
21.5854 0.388
21.5959 0.439
21.6065 0.388
21.6170 0.347
21.6275 0.368
21.6380 0.368
21.6485 0.317
21.6591 0.378
21.6696 0.460
21.6801 0.398
21.6906 0.419
21.7012 0.449
21.7117 0.368
21.7222 0.255
21.7327 0.286
21.7432 0.439
21.7538 0.439
21.7643 0.419
21.7748 0.429
21.7853 0.378
21.7959 0.378
21.8064 0.327
21.8169 0.368
21.8274 0.276
21.8380 0.388
21.8485 0.408
21.8590 0.327
21.8695 0.388
21.8800 0.398
21.8906 0.388
21.9011 0.357
21.9116 0.337
21.9221 0.408
21.9327 0.398
21.9432 0.296
21.9537 0.419
21.9642 0.378
21.9747 0.408
21.9853 0.317
21.9958 0.408
22.0063 0.378
22.0168 0.378
22.0274 0.388
22.0379 0.317
22.0484 0.337
22.0589 0.337
22.0694 0.337
22.0800 0.296
22.0905 0.521
22.1010 0.398
22.1115 0.317
22.1221 0.245
22.1326 0.408
22.1431 0.398
22.1536 0.398
22.1642 0.419
22.1747 0.276
22.1852 0.500
22.1957 0.429
22.2062 0.357
22.2168 0.388
22.2273 0.327
22.2378 0.480
22.2483 0.327
22.2589 0.347
22.2694 0.398
22.2799 0.368
22.2904 0.419
22.3009 0.531
22.3115 0.408
22.3220 0.357
22.3325 0.551
22.3430 0.470
22.3536 0.480
22.3641 0.419
22.3746 0.419
22.3851 0.408
22.3956 0.490
22.4062 0.388
22.4167 0.490
22.4272 0.419
22.4377 0.582
22.4483 0.511
22.4588 0.470
22.4693 0.551
22.4798 0.592
22.4904 0.500
22.5009 0.776
22.5114 0.572
22.5219 0.837
22.5324 0.562
22.5430 0.797
22.5535 0.940
22.5640 1.113
22.5745 1.062
22.5851 1.246
22.5956 1.420
22.6061 1.440
22.6166 1.716
22.6271 1.808
22.6377 2.094
22.6482 2.553
22.6587 3.033
22.6692 3.288
22.6798 3.676
22.6903 4.146
22.7008 4.657
22.7113 4.912
22.7219 4.902
22.7324 5.249
22.7429 5.413
22.7534 5.331
22.7639 5.198
22.7745 5.147
22.7850 4.698
22.7955 4.116
22.8060 3.973
22.8166 3.523
22.8271 3.043
22.8376 2.400
22.8481 2.349
22.8586 1.685
22.8692 1.522
22.8797 1.440
22.8902 1.236
22.9007 1.174
22.9113 1.052
22.9218 1.011
22.9323 0.970
22.9428 0.756
22.9533 0.725
22.9639 0.613
22.9744 0.449
22.9849 0.562
22.9954 0.511
23.0060 0.643
23.0165 0.500
23.0270 0.551
23.0375 0.551
23.0481 0.511
23.0586 0.480
23.0691 0.603
23.0796 0.480
23.0901 0.460
23.1007 0.521
23.1112 0.398
23.1217 0.408
23.1322 0.245
23.1428 0.266
23.1533 0.419
23.1638 0.337
23.1743 0.378
23.1848 0.419
23.1954 0.347
23.2059 0.347
23.2164 0.480
23.2269 0.439
23.2375 0.460
23.2480 0.439
23.2585 0.225
23.2690 0.357
23.2795 0.347
23.2901 0.368
23.3006 0.368
23.3111 0.337
23.3216 0.378
23.3322 0.398
23.3427 0.388
23.3532 0.460
23.3637 0.449
23.3743 0.388
23.3848 0.398
23.3953 0.439
23.4058 0.296
23.4163 0.419
23.4269 0.306
23.4374 0.429
23.4479 0.337
23.4584 0.337
23.4690 0.388
23.4795 0.357
23.4900 0.357
23.5005 0.347
23.5110 0.398
23.5216 0.347
23.5321 0.398
23.5426 0.419
23.5531 0.429
23.5637 0.449
23.5742 0.398
23.5847 0.214
23.5952 0.317
23.6058 0.388
23.6163 0.337
23.6268 0.368
23.6373 0.357
23.6478 0.337
23.6584 0.317
23.6689 0.306
23.6794 0.327
23.6899 0.439
23.7005 0.317
23.7110 0.327
23.7215 0.368
23.7320 0.408
23.7425 0.408
23.7531 0.408
23.7636 0.419
23.7741 0.408
23.7846 0.368
23.7952 0.327
23.8057 0.490
23.8162 0.429
23.8267 0.296
23.8372 0.449
23.8478 0.378
23.8583 0.357
23.8688 0.562
23.8793 0.562
23.8899 0.408
23.9004 0.541
23.9109 0.490
23.9214 0.633
23.9320 0.715
23.9425 0.643
23.9530 0.909
23.9635 0.705
23.9740 0.766
23.9846 0.940
23.9951 1.123
24.0056 1.174
24.0161 1.266
24.0267 1.348
24.0372 1.501
24.0477 1.593
24.0582 1.971
24.0687 2.104
24.0793 2.002
24.0898 2.094
24.1003 1.951
24.1108 2.145
24.1214 1.991
24.1319 1.542
24.1424 1.338
24.1529 1.389
24.1635 1.420
24.1740 1.123
24.1845 1.113
24.1950 0.991
24.2055 0.899
24.2161 0.715
24.2266 0.613
24.2371 0.582
24.2476 0.490
24.2582 0.439
24.2687 0.541
24.2792 0.490
24.2897 0.531
24.3002 0.398
24.3108 0.429
24.3213 0.439
24.3318 0.368
24.3423 0.449
24.3529 0.398
24.3634 0.347
24.3739 0.398
24.3844 0.347
24.3949 0.419
24.4055 0.449
24.4160 0.337
24.4265 0.276
24.4370 0.398
24.4476 0.378
24.4581 0.357
24.4686 0.480
24.4791 0.470
24.4897 0.266
24.5002 0.327
24.5107 0.398
24.5212 0.429
24.5317 0.337
24.5423 0.470
24.5528 0.357
24.5633 0.286
24.5738 0.286
24.5844 0.255
24.5949 0.470
24.6054 0.419
24.6159 0.225
24.6264 0.449
24.6370 0.470
24.6475 0.317
24.6580 0.357
24.6685 0.408
24.6791 0.225
24.6896 0.296
24.7001 0.378
24.7106 0.327
24.7211 0.388
24.7317 0.378
24.7422 0.470
24.7527 0.306
24.7632 0.286
24.7738 0.357
24.7843 0.419
24.7948 0.408
24.8053 0.419
24.8159 0.398
24.8264 0.511
24.8369 0.388
24.8474 0.337
24.8579 0.388
24.8685 0.337
24.8790 0.398
24.8895 0.500
24.9000 0.337
24.9106 0.317
24.9211 0.562
24.9316 0.460
24.9421 0.388
24.9526 0.296
24.9632 0.470
24.9737 0.419
24.9842 0.449
24.9947 0.388
25.0053 0.378
25.0158 0.368
25.0263 0.460
25.0368 0.500
25.0474 0.439
25.0579 0.490
25.0684 0.419
25.0789 0.572
25.0894 0.408
25.1000 0.419
25.1105 0.368
25.1210 0.388
25.1315 0.419
25.1421 0.439
25.1526 0.439
25.1631 0.521
25.1736 0.551
25.1841 0.562
25.1947 0.551
25.2052 0.613
25.2157 0.633
25.2262 0.460
25.2368 0.470
25.2473 0.582
25.2578 0.603
25.2683 0.623
25.2788 0.797
25.2894 0.684
25.2999 0.786
25.3104 0.837
25.3209 0.980
25.3315 0.940
25.3420 1.215
25.3525 1.103
25.3630 1.062
25.3736 1.389
25.3841 1.399
25.3946 1.685
25.4051 1.440
25.4156 1.961
25.4262 2.390
25.4367 2.441
25.4472 2.727
25.4577 3.482
25.4683 3.513
25.4788 4.177
25.4893 4.545
25.4998 6.107
25.5103 6.638
25.5209 7.874
25.5314 9.477
25.5419 10.437
25.5524 11.826
25.5630 13.583
25.5735 14.869
25.5840 16.442
25.5945 16.861
25.6050 17.657
25.6156 17.239
25.6261 17.545
25.6366 17.024
25.6471 16.095
25.6577 14.583
25.6682 13.450
25.6787 12.286
25.6892 10.815
25.6998 9.416
25.7103 8.395
25.7208 7.353
25.7313 6.076
25.7418 5.208
25.7524 4.402
25.7629 3.922
25.7734 3.186
25.7839 3.196
25.7945 2.492
25.8050 2.308
25.8155 1.940
25.8260 1.879
25.8365 1.522
25.8471 1.532
25.8576 1.154
25.8681 1.256
25.8786 1.011
25.8892 1.062
25.8997 0.940
25.9102 0.797
25.9207 0.807
25.9313 0.725
25.9418 0.592
25.9523 0.756
25.9628 0.654
25.9733 0.725
25.9839 0.613
25.9944 0.541
26.0049 0.603
26.0154 0.480
26.0260 0.460
26.0365 0.582
26.0470 0.633
26.0575 0.460
26.0680 0.511
26.0786 0.408
26.0891 0.521
26.0996 0.347
26.1101 0.480
26.1207 0.398
26.1312 0.317
26.1417 0.562
26.1522 0.429
26.1627 0.357
26.1733 0.460
26.1838 0.378
26.1943 0.368
26.2048 0.439
26.2154 0.368
26.2259 0.449
26.2364 0.460
26.2469 0.276
26.2575 0.398
26.2680 0.296
26.2785 0.368
26.2890 0.439
26.2995 0.286
26.3101 0.388
26.3206 0.378
26.3311 0.276
26.3416 0.357
26.3522 0.296
26.3627 0.317
26.3732 0.347
26.3837 0.306
26.3942 0.388
26.4048 0.204
26.4153 0.460
26.4258 0.235
26.4363 0.337
26.4469 0.327
26.4574 0.378
26.4679 0.276
26.4784 0.337
26.4889 0.235
26.4995 0.480
26.5100 0.368
26.5205 0.337
26.5310 0.327
26.5416 0.286
26.5521 0.398
26.5626 0.398
26.5731 0.296
26.5837 0.327
26.5942 0.225
26.6047 0.327
26.6152 0.266
26.6257 0.266
26.6363 0.296
26.6468 0.337
26.6573 0.429
26.6678 0.337
26.6784 0.255
26.6889 0.266
26.6994 0.327
26.7099 0.398
26.7204 0.276
26.7310 0.306
26.7415 0.439
26.7520 0.317
26.7625 0.266
26.7731 0.255
26.7836 0.286
26.7941 0.255
26.8046 0.398
26.8152 0.419
26.8257 0.317
26.8362 0.286
26.8467 0.317
26.8572 0.347
26.8678 0.347
26.8783 0.317
26.8888 0.327
26.8993 0.276
26.9099 0.255
26.9204 0.214
26.9309 0.276
26.9414 0.439
26.9519 0.255
26.9625 0.347
26.9730 0.398
26.9835 0.306
26.9940 0.296
27.0046 0.296
27.0151 0.347
27.0256 0.368
27.0361 0.337
27.0466 0.327
27.0572 0.266
27.0677 0.184
27.0782 0.286
27.0887 0.296
27.0993 0.317
27.1098 0.276
27.1203 0.347
27.1308 0.286
27.1414 0.296
27.1519 0.306
27.1624 0.490
27.1729 0.245
27.1834 0.317
27.1940 0.286
27.2045 0.327
27.2150 0.276
27.2255 0.347
27.2361 0.296
27.2466 0.296
27.2571 0.235
27.2676 0.255
27.2781 0.357
27.2887 0.286
27.2992 0.204
27.3097 0.337
27.3202 0.337
27.3308 0.235
27.3413 0.357
27.3518 0.306
27.3623 0.225
27.3728 0.276
27.3834 0.255
27.3939 0.245
27.4044 0.296
27.4149 0.214
27.4255 0.347
27.4360 0.245
27.4465 0.408
27.4570 0.266
27.4676 0.296
27.4781 0.347
27.4886 0.235
27.4991 0.235
27.5096 0.347
27.5202 0.235
27.5307 0.245
27.5412 0.245
27.5517 0.347
27.5623 0.194
27.5728 0.245
27.5833 0.327
27.5938 0.357
27.6043 0.266
27.6149 0.174
27.6254 0.306
27.6359 0.266
27.6464 0.204
27.6570 0.245
27.6675 0.266
27.6780 0.306
27.6885 0.368
27.6991 0.378
27.7096 0.337
27.7201 0.204
27.7306 0.276
27.7411 0.286
27.7517 0.214
27.7622 0.357
27.7727 0.266
27.7832 0.378
27.7938 0.235
27.8043 0.306
27.8148 0.266
27.8253 0.306
27.8358 0.306
27.8464 0.276
27.8569 0.235
27.8674 0.286
27.8779 0.235
27.8885 0.204
27.8990 0.225
27.9095 0.317
27.9200 0.337
27.9305 0.317
27.9411 0.235
27.9516 0.378
27.9621 0.337
27.9726 0.378
27.9832 0.337
27.9937 0.419
28.0042 0.286
28.0147 0.306
28.0253 0.357
28.0358 0.204
28.0463 0.245
28.0568 0.306
28.0673 0.255
28.0779 0.276
28.0884 0.276
28.0989 0.235
28.1094 0.255
28.1200 0.266
28.1305 0.337
28.1410 0.357
28.1515 0.266
28.1620 0.408
28.1726 0.357
28.1831 0.347
28.1936 0.357
28.2041 0.255
28.2147 0.255
28.2252 0.245
28.2357 0.317
28.2462 0.398
28.2568 0.388
28.2673 0.225
28.2778 0.276
28.2883 0.347
28.2988 0.357
28.3094 0.276
28.3199 0.266
28.3304 0.347
28.3409 0.245
28.3515 0.439
28.3620 0.225
28.3725 0.276
28.3830 0.306
28.3935 0.327
28.4041 0.255
28.4146 0.398
28.4251 0.306
28.4356 0.337
28.4462 0.337
28.4567 0.276
28.4672 0.266
28.4777 0.235
28.4882 0.388
28.4988 0.347
28.5093 0.357
28.5198 0.347
28.5303 0.388
28.5409 0.317
28.5514 0.357
28.5619 0.296
28.5724 0.286
28.5830 0.337
28.5935 0.306
28.6040 0.296
28.6145 0.378
28.6250 0.286
28.6356 0.266
28.6461 0.296
28.6566 0.337
28.6671 0.266
28.6777 0.337
28.6882 0.235
28.6987 0.296
28.7092 0.214
28.7197 0.327
28.7303 0.317
28.7408 0.419
28.7513 0.276
28.7618 0.276
28.7724 0.306
28.7829 0.266
28.7934 0.317
28.8039 0.276
28.8144 0.306
28.8250 0.255
28.8355 0.163
28.8460 0.306
28.8565 0.266
28.8671 0.337
28.8776 0.378
28.8881 0.337
28.8986 0.378
28.9092 0.408
28.9197 0.347
28.9302 0.337
28.9407 0.357
28.9512 0.347
28.9618 0.347
28.9723 0.255
28.9828 0.429
28.9933 0.327
29.0039 0.327
29.0144 0.296
29.0249 0.306
29.0354 0.327
29.0459 0.296
29.0565 0.306
29.0670 0.398
29.0775 0.439
29.0880 0.357
29.0986 0.368
29.1091 0.398
29.1196 0.276
29.1301 0.306
29.1407 0.327
29.1512 0.419
29.1617 0.204
29.1722 0.357
29.1827 0.408
29.1933 0.408
29.2038 0.398
29.2143 0.419
29.2248 0.317
29.2354 0.480
29.2459 0.449
29.2564 0.521
29.2669 0.500
29.2774 0.470
29.2880 0.654
29.2985 0.511
29.3090 0.490
29.3195 0.592
29.3301 0.613
29.3406 0.562
29.3511 0.490
29.3616 0.480
29.3721 0.439
29.3827 0.551
29.3932 0.746
29.4037 0.643
29.4142 0.725
29.4248 0.592
29.4353 0.705
29.4458 0.684
29.4563 0.848
29.4669 0.899
29.4774 1.093
29.4879 0.848
29.4984 1.154
29.5089 1.021
29.5195 1.287
29.5300 1.440
29.5405 1.195
29.5510 1.603
29.5616 1.603
29.5721 1.818
29.5826 1.787
29.5931 2.359
29.6036 2.737
29.6142 2.768
29.6247 3.115
29.6352 3.748
29.6457 4.024
29.6563 5.423
29.6668 5.362
29.6773 5.688
29.6878 7.527
29.6983 9.385
29.7089 9.385
29.7194 10.631
29.7299 12.612
29.7404 13.501
29.7510 14.195
29.7615 14.645
29.7720 15.870
29.7825 16.197
29.7931 15.982
29.8036 16.371
29.8141 15.839
29.8246 14.634
29.8351 14.103
29.8457 13.174
29.8562 11.080
29.8667 10.846
29.8772 8.905
29.8878 7.813
29.8983 7.302
29.9088 6.638
29.9193 5.647
29.9298 5.014
29.9404 4.095
29.9509 3.768
29.9614 2.778
29.9719 3.002
29.9825 2.216
29.9930 2.298
30.0035 1.889
30.0140 1.869
30.0246 1.828
30.0351 1.420
30.0456 1.164
30.0561 1.062
30.0666 0.940
30.0772 0.940
30.0877 0.960
30.0982 0.868
30.1087 0.807
30.1193 0.756
30.1298 0.970
30.1403 0.541
30.1508 0.643
30.1613 0.664
30.1719 0.470
30.1824 0.531
30.1929 0.419
30.2034 0.480
30.2140 0.429
30.2245 0.480
30.2350 0.419
30.2455 0.480
30.2560 0.562
30.2666 0.429
30.2771 0.449
30.2876 0.429
30.2981 0.347
30.3087 0.317
30.3192 0.419
30.3297 0.347
30.3402 0.419
30.3508 0.266
30.3613 0.306
30.3718 0.511
30.3823 0.378
30.3928 0.408
30.4034 0.347
30.4139 0.306
30.4244 0.500
30.4349 0.337
30.4455 0.327
30.4560 0.255
30.4665 0.296
30.4770 0.266
30.4875 0.398
30.4981 0.296
30.5086 0.347
30.5191 0.398
30.5296 0.317
30.5402 0.286
30.5507 0.357
30.5612 0.337
30.5717 0.266
30.5822 0.317
30.5928 0.306
30.6033 0.439
30.6138 0.296
30.6243 0.296
30.6349 0.327
30.6454 0.296
30.6559 0.317
30.6664 0.286
30.6770 0.174
30.6875 0.337
30.6980 0.327
30.7085 0.184
30.7190 0.245
30.7296 0.266
30.7401 0.286
30.7506 0.255
30.7611 0.276
30.7717 0.317
30.7822 0.204
30.7927 0.357
30.8032 0.245
30.8137 0.276
30.8243 0.174
30.8348 0.235
30.8453 0.235
30.8558 0.327
30.8664 0.255
30.8769 0.347
30.8874 0.306
30.8979 0.163
30.9085 0.317
30.9190 0.347
30.9295 0.214
30.9400 0.266
30.9505 0.337
30.9611 0.235
30.9716 0.347
30.9821 0.255
30.9926 0.214
31.0032 0.245
31.0137 0.214
31.0242 0.357
31.0347 0.235
31.0452 0.337
31.0558 0.378
31.0663 0.296
31.0768 0.276
31.0873 0.266
31.0979 0.214
31.1084 0.214
31.1189 0.286
31.1294 0.286
31.1399 0.163
31.1505 0.194
31.1610 0.306
31.1715 0.266
31.1820 0.276
31.1926 0.214
31.2031 0.245
31.2136 0.388
31.2241 0.276
31.2347 0.286
31.2452 0.286
31.2557 0.235
31.2662 0.286
31.2767 0.306
31.2873 0.235
31.2978 0.296
31.3083 0.276
31.3188 0.286
31.3294 0.296
31.3399 0.286
31.3504 0.276
31.3609 0.204
31.3714 0.225
31.3820 0.296
31.3925 0.347
31.4030 0.235
31.4135 0.306
31.4241 0.245
31.4346 0.225
31.4451 0.327
31.4556 0.235
31.4662 0.235
31.4767 0.266
31.4872 0.255
31.4977 0.276
31.5082 0.266
31.5188 0.296
31.5293 0.357
31.5398 0.184
31.5503 0.225
31.5609 0.276
31.5714 0.245
31.5819 0.327
31.5924 0.266
31.6029 0.266
31.6135 0.337
31.6240 0.133
31.6345 0.317
31.6450 0.214
31.6556 0.204
31.6661 0.337
31.6766 0.286
31.6871 0.296
31.6976 0.296
31.7082 0.245
31.7187 0.296
31.7292 0.296
31.7397 0.398
31.7503 0.255
31.7608 0.225
31.7713 0.388
31.7818 0.317
31.7924 0.480
31.8029 0.225
31.8134 0.337
31.8239 0.500
31.8344 0.368
31.8450 0.388
31.8555 0.306
31.8660 0.419
31.8765 0.419
31.8871 0.439
31.8976 0.317
31.9081 0.480
31.9186 0.419
31.9291 0.531
31.9397 0.327
31.9502 0.511
31.9607 0.419
31.9712 0.531
31.9818 0.562
31.9923 0.551
32.0028 0.684
32.0133 0.582
32.0238 0.684
32.0344 0.715
32.0449 0.735
32.0554 0.746
32.0659 0.837
32.0765 0.858
32.0870 1.277
32.0975 1.154
32.1080 1.593
32.1186 1.532
32.1291 1.910
32.1396 2.012
32.1501 2.216
32.1606 2.747
32.1712 2.941
32.1817 3.544
32.1922 3.697
32.2027 4.218
32.2133 5.362
32.2238 5.821
32.2343 6.342
32.2448 6.801
32.2553 6.842
32.2659 7.026
32.2764 6.250
32.2869 6.107
32.2974 5.637
32.3080 5.290
32.3185 4.667
32.3290 4.116
32.3395 3.891
32.3501 2.972
32.3606 3.084
32.3711 2.420
32.3816 1.991
32.3921 1.828
32.4027 1.614
32.4132 1.368
32.4237 1.358
32.4342 1.215
32.4448 1.256
32.4553 0.980
32.4658 0.817
32.4763 0.623
32.4868 0.776
32.4974 0.613
32.5079 0.551
32.5184 0.572
32.5289 0.439
32.5395 0.582
32.5500 0.480
32.5605 0.592
32.5710 0.398
32.5815 0.439
32.5921 0.388
32.6026 0.327
32.6131 0.368
32.6236 0.317
32.6342 0.347
32.6447 0.357
32.6552 0.327
32.6657 0.255
32.6763 0.398
32.6868 0.296
32.6973 0.327
32.7078 0.429
32.7183 0.235
32.7289 0.296
32.7394 0.184
32.7499 0.214
32.7604 0.327
32.7710 0.276
32.7815 0.317
32.7920 0.276
32.8025 0.327
32.8130 0.317
32.8236 0.235
32.8341 0.255
32.8446 0.357
32.8551 0.286
32.8657 0.225
32.8762 0.255
32.8867 0.225
32.8972 0.235
32.9077 0.317
32.9183 0.266
32.9288 0.245
32.9393 0.225
32.9498 0.388
32.9604 0.296
32.9709 0.204
32.9814 0.225
32.9919 0.276
33.0025 0.235
33.0130 0.235
33.0235 0.194
33.0340 0.266
33.0445 0.296
33.0551 0.255
33.0656 0.225
33.0761 0.266
33.0866 0.174
33.0972 0.255
33.1077 0.276
33.1182 0.286
33.1287 0.296
33.1392 0.255
33.1498 0.204
33.1603 0.174
33.1708 0.255
33.1813 0.266
33.1919 0.306
33.2024 0.245
33.2129 0.286
33.2234 0.163
33.2340 0.153
33.2445 0.204
33.2550 0.194
33.2655 0.296
33.2760 0.163
33.2866 0.133
33.2971 0.286
33.3076 0.276
33.3181 0.225
33.3287 0.225
33.3392 0.357
33.3497 0.225
33.3602 0.266
33.3707 0.174
33.3813 0.235
33.3918 0.245
33.4023 0.204
33.4128 0.194
33.4234 0.204
33.4339 0.306
33.4444 0.337
33.4549 0.225
33.4654 0.245
33.4760 0.194
33.4865 0.174
33.4970 0.214
33.5075 0.153
33.5181 0.214
33.5286 0.245
33.5391 0.194
33.5496 0.327
33.5602 0.225
33.5707 0.286
33.5812 0.317
33.5917 0.235
33.6022 0.266
33.6128 0.245
33.6233 0.306
33.6338 0.266
33.6443 0.245
33.6549 0.276
33.6654 0.276
33.6759 0.112
33.6864 0.163
33.6969 0.184
33.7075 0.276
33.7180 0.255
33.7285 0.266
33.7390 0.245
33.7496 0.337
33.7601 0.317
33.7706 0.214
33.7811 0.184
33.7916 0.245
33.8022 0.245
33.8127 0.306
33.8232 0.214
33.8337 0.214
33.8443 0.245
33.8548 0.306
33.8653 0.286
33.8758 0.317
33.8864 0.286
33.8969 0.214
33.9074 0.296
33.9179 0.184
33.9284 0.174
33.9390 0.286
33.9495 0.266
33.9600 0.235
33.9705 0.337
33.9811 0.276
33.9916 0.276
34.0021 0.296
34.0126 0.245
34.0231 0.235
34.0337 0.225
34.0442 0.235
34.0547 0.337
34.0652 0.286
34.0758 0.245
34.0863 0.235
34.0968 0.286
34.1073 0.245
34.1179 0.286
34.1284 0.163
34.1389 0.255
34.1494 0.266
34.1599 0.306
34.1705 0.214
34.1810 0.276
34.1915 0.225
34.2020 0.286
34.2126 0.163
34.2231 0.266
34.2336 0.255
34.2441 0.255
34.2546 0.296
34.2652 0.255
34.2757 0.245
34.2862 0.276
34.2967 0.337
34.3073 0.255
34.3178 0.225
34.3283 0.266
34.3388 0.245
34.3493 0.174
34.3599 0.225
34.3704 0.245
34.3809 0.357
34.3914 0.286
34.4020 0.184
34.4125 0.357
34.4230 0.255
34.4335 0.378
34.4441 0.408
34.4546 0.419
34.4651 0.521
34.4756 0.296
34.4861 0.357
34.4967 0.470
34.5072 0.368
34.5177 0.511
34.5282 0.592
34.5388 0.572
34.5493 0.592
34.5598 0.398
34.5703 0.572
34.5808 0.582
34.5914 0.756
34.6019 0.562
34.6124 0.705
34.6229 0.643
34.6335 0.746
34.6440 0.603
34.6545 0.572
34.6650 0.408
34.6756 0.531
34.6861 0.511
34.6966 0.500
34.7071 0.582
34.7176 0.378
34.7282 0.408
34.7387 0.439
34.7492 0.511
34.7597 0.388
34.7703 0.439
34.7808 0.368
34.7913 0.398
34.8018 0.398
34.8123 0.306
34.8229 0.225
34.8334 0.317
34.8439 0.439
34.8544 0.429
34.8650 0.500
34.8755 0.388
34.8860 0.327
34.8965 0.337
34.9070 0.337
34.9176 0.347
34.9281 0.337
34.9386 0.408
34.9491 0.419
34.9597 0.347
34.9702 0.368
34.9807 0.449
34.9912 0.276
35.0018 0.368
35.0123 0.214
35.0228 0.368
35.0333 0.378
35.0438 0.439
35.0544 0.449
35.0649 0.347
35.0754 0.460
35.0859 0.408
35.0965 0.674
35.1070 0.327
35.1175 0.551
35.1280 0.408
35.1385 0.470
35.1491 0.357
35.1596 0.562
35.1701 0.419
35.1806 0.521
35.1912 0.643
35.2017 0.531
35.2122 0.419
35.2227 0.572
35.2332 0.562
35.2438 0.603
35.2543 0.521
35.2648 0.766
35.2753 0.633
35.2859 0.817
35.2964 0.705
35.3069 0.837
35.3174 0.858
35.3280 1.062
35.3385 1.113
35.3490 1.205
35.3595 1.246
35.3700 1.307
35.3806 1.440
35.3911 1.726
35.4016 1.552
35.4121 2.042
35.4227 2.390
35.4332 2.185
35.4437 2.492
35.4542 3.033
35.4647 3.248
35.4753 3.625
35.4858 4.044
35.4963 4.718
35.5068 4.943
35.5174 6.025
35.5279 7.159
35.5384 8.027
35.5489 9.365
35.5595 9.957
35.5700 11.009
35.5805 12.786
35.5910 13.685
35.6015 15.993
35.6121 16.963
35.6226 18.638
35.6331 19.199
35.6436 19.935
35.6542 19.240
35.6647 17.943
35.6752 18.719
35.6857 16.973
35.6962 15.656
35.7068 13.981
35.7173 13.082
35.7278 11.397
35.7383 9.549
35.7489 8.374
35.7594 7.955
35.7699 7.322
35.7804 5.699
35.7909 5.249
35.8015 4.616
35.8120 4.024
35.8225 3.564
35.8330 3.207
35.8436 3.176
35.8541 2.614
35.8646 2.267
35.8751 2.083
35.8857 1.940
35.8962 2.002
35.9067 1.644
35.9172 1.440
35.9277 1.348
35.9383 1.501
35.9488 1.215
35.9593 1.083
35.9698 0.868
35.9804 0.919
35.9909 0.817
36.0014 0.868
36.0119 0.725
36.0224 0.674
36.0330 0.817
36.0435 0.827
36.0540 0.705
36.0645 0.715
36.0751 0.572
36.0856 0.664
36.0961 0.643
36.1066 0.654
36.1171 0.562
36.1277 0.551
36.1382 0.633
36.1487 0.551
36.1592 0.633
36.1698 0.460
36.1803 0.429
36.1908 0.511
36.2013 0.521
36.2119 0.460
36.2224 0.562
36.2329 0.746
36.2434 0.449
36.2539 0.613
36.2645 0.572
36.2750 0.603
36.2855 0.664
36.2960 0.521
36.3066 0.613
36.3171 0.715
36.3276 0.694
36.3381 0.940
36.3486 0.837
36.3592 0.858
36.3697 0.868
36.3802 1.011
36.3907 1.021
36.4013 1.052
36.4118 1.379
36.4223 1.287
36.4328 1.430
36.4434 1.420
36.4539 1.838
36.4644 2.226
36.4749 2.512
36.4854 2.594
36.4960 3.043
36.5065 3.309
36.5170 3.258
36.5275 3.799
36.5381 4.156
36.5486 4.820
36.5591 4.963
36.5696 5.270
36.5801 5.944
36.5907 6.087
36.6012 6.015
36.6117 5.729
36.6222 5.443
36.6328 5.504
36.6433 5.310
36.6538 4.892
36.6643 4.800
36.6748 4.534
36.6854 3.891
36.6959 3.819
36.7064 3.054
36.7169 2.951
36.7275 2.665
36.7380 2.379
36.7485 1.777
36.7590 2.073
36.7696 1.409
36.7801 1.379
36.7906 1.348
36.8011 1.154
36.8116 1.031
36.8222 0.991
36.8327 0.858
36.8432 0.909
36.8537 0.766
36.8643 0.786
36.8748 0.786
36.8853 0.470
36.8958 0.684
36.9063 0.429
36.9169 0.408
36.9274 0.439
36.9379 0.378
36.9484 0.439
36.9590 0.317
36.9695 0.408
36.9800 0.296
36.9905 0.429
37.0010 0.306
37.0116 0.511
37.0221 0.449
37.0326 0.439
37.0431 0.276
37.0537 0.337
37.0642 0.327
37.0747 0.347
37.0852 0.337
37.0958 0.276
37.1063 0.368
37.1168 0.306
37.1273 0.306
37.1378 0.337
37.1484 0.347
37.1589 0.337
37.1694 0.398
37.1799 0.225
37.1905 0.276
37.2010 0.317
37.2115 0.286
37.2220 0.429
37.2325 0.347
37.2431 0.286
37.2536 0.204
37.2641 0.266
37.2746 0.266
37.2852 0.317
37.2957 0.327
37.3062 0.347
37.3167 0.306
37.3273 0.266
37.3378 0.266
37.3483 0.296
37.3588 0.235
37.3693 0.245
37.3799 0.296
37.3904 0.276
37.4009 0.306
37.4114 0.276
37.4220 0.245
37.4325 0.317
37.4430 0.286
37.4535 0.276
37.4640 0.255
37.4746 0.245
37.4851 0.317
37.4956 0.276
37.5061 0.214
37.5167 0.306
37.5272 0.357
37.5377 0.327
37.5482 0.306
37.5587 0.337
37.5693 0.225
37.5798 0.429
37.5903 0.368
37.6008 0.368
37.6114 0.388
37.6219 0.388
37.6324 0.480
37.6429 0.398
37.6535 0.429
37.6640 0.460
37.6745 0.357
37.6850 0.480
37.6955 0.357
37.7061 0.592
37.7166 0.500
37.7271 0.603
37.7376 0.511
37.7482 0.603
37.7587 0.592
37.7692 0.694
37.7797 0.919
37.7902 1.215
37.8008 1.225
37.8113 1.185
37.8218 1.399
37.8323 1.522
37.8429 1.654
37.8534 1.991
37.8639 2.369
37.8744 2.768
37.8849 2.900
37.8955 3.074
37.9060 3.431
37.9165 3.707
37.9270 4.361
37.9376 3.901
37.9481 4.371
37.9586 4.105
37.9691 4.504
37.9797 3.789
37.9902 3.830
38.0007 3.758
38.0112 3.421
38.0217 3.064
38.0323 2.727
38.0428 2.441
38.0533 1.879
38.0638 2.022
38.0744 1.848
38.0849 1.379
38.0954 1.440
38.1059 1.185
38.1164 1.144
38.1270 0.929
38.1375 1.083
38.1480 0.888
38.1585 0.888
38.1691 0.674
38.1796 0.725
38.1901 0.735
38.2006 0.705
38.2112 0.388
38.2217 0.592
38.2322 0.511
38.2427 0.408
38.2532 0.368
38.2638 0.460
38.2743 0.419
38.2848 0.439
38.2953 0.449
38.3059 0.398
38.3164 0.408
38.3269 0.480
38.3374 0.470
38.3479 0.439
38.3585 0.449
38.3690 0.347
38.3795 0.388
38.3900 0.368
38.4006 0.276
38.4111 0.378
38.4216 0.337
38.4321 0.266
38.4426 0.317
38.4532 0.357
38.4637 0.306
38.4742 0.245
38.4847 0.266
38.4953 0.245
38.5058 0.276
38.5163 0.235
38.5268 0.276
38.5374 0.266
38.5479 0.286
38.5584 0.184
38.5689 0.276
38.5794 0.245
38.5900 0.266
38.6005 0.255
38.6110 0.214
38.6215 0.235
38.6321 0.286
38.6426 0.296
38.6531 0.317
38.6636 0.204
38.6741 0.245
38.6847 0.133
38.6952 0.204
38.7057 0.225
38.7162 0.214
38.7268 0.204
38.7373 0.276
38.7478 0.133
38.7583 0.266
38.7689 0.225
38.7794 0.306
38.7899 0.296
38.8004 0.276
38.8109 0.255
38.8215 0.143
38.8320 0.194
38.8425 0.204
38.8530 0.266
38.8636 0.143
38.8741 0.245
38.8846 0.255
38.8951 0.317
38.9056 0.306
38.9162 0.337
38.9267 0.225
38.9372 0.235
38.9477 0.276
38.9583 0.378
38.9688 0.174
38.9793 0.266
38.9898 0.235
39.0003 0.214
39.0109 0.204
39.0214 0.398
39.0319 0.235
39.0424 0.235
39.0530 0.337
39.0635 0.337
39.0740 0.286
39.0845 0.408
39.0951 0.337
39.1056 0.500
39.1161 0.470
39.1266 0.408
39.1371 0.449
39.1477 0.306
39.1582 0.531
39.1687 0.541
39.1792 0.480
39.1898 0.388
39.2003 0.643
39.2108 0.684
39.2213 0.827
39.2318 0.858
39.2424 0.807
39.2529 1.062
39.2634 1.083
39.2739 1.338
39.2845 1.481
39.2950 1.634
39.3055 1.991
39.3160 2.002
39.3265 2.216
39.3371 2.420
39.3476 2.216
39.3581 2.849
39.3686 3.033
39.3792 2.635
39.3897 2.185
39.4002 2.625
39.4107 2.635
39.4213 2.339
39.4318 1.991
39.4423 1.695
39.4528 1.695
39.4633 1.685
39.4739 1.287
39.4844 1.501
39.4949 1.277
39.5054 1.481
39.5160 1.164
39.5265 1.246
39.5370 1.368
39.5475 1.389
39.5580 1.287
39.5686 1.563
39.5791 1.889
39.5896 1.501
39.6001 1.746
39.6107 2.094
39.6212 1.889
39.6317 2.267
39.6422 2.492
39.6528 2.676
39.6633 2.911
39.6738 3.145
39.6843 3.156
39.6948 3.268
39.7054 3.585
39.7159 3.523
39.7264 3.656
39.7369 3.952
39.7475 3.615
39.7580 3.676
39.7685 3.891
39.7790 3.983
39.7895 3.595
39.8001 4.156
39.8106 4.739
39.8211 4.320
39.8316 4.361
39.8422 4.596
39.8527 4.514
39.8632 4.463
39.8737 4.156
39.8842 4.208
39.8948 3.697
39.9053 3.411
39.9158 3.043
39.9263 2.798
39.9369 3.002
39.9474 2.339
39.9579 2.022
39.9684 2.002
39.9790 1.573
39.9895 1.399
40.0000 1.460
40.0105 1.256
40.0210 1.195
40.0316 0.970
40.0421 0.837
40.0526 0.837
40.0631 0.572
40.0737 0.694
40.0842 0.664
40.0947 0.562
40.1052 0.521
40.1157 0.429
40.1263 0.541
40.1368 0.531
40.1473 0.500
40.1578 0.521
40.1684 0.419
40.1789 0.408
40.1894 0.368
40.1999 0.368
40.2104 0.327
40.2210 0.306
40.2315 0.276
40.2420 0.296
40.2525 0.327
40.2631 0.306
40.2736 0.306
40.2841 0.245
40.2946 0.214
40.3052 0.317
40.3157 0.276
40.3262 0.245
40.3367 0.306
40.3472 0.368
40.3578 0.204
40.3683 0.286
40.3788 0.204
40.3893 0.266
40.3999 0.235
40.4104 0.245
40.4209 0.255
40.4314 0.153
40.4419 0.266
40.4525 0.245
40.4630 0.225
40.4735 0.276
40.4840 0.225
40.4946 0.296
40.5051 0.194
40.5156 0.296
40.5261 0.276
40.5367 0.184
40.5472 0.306
40.5577 0.163
40.5682 0.368
40.5787 0.153
40.5893 0.306
40.5998 0.194
40.6103 0.276
40.6208 0.266
40.6314 0.184
40.6419 0.225
40.6524 0.245
40.6629 0.245
40.6734 0.225
40.6840 0.225
40.6945 0.245
40.7050 0.163
40.7155 0.317
40.7261 0.102
40.7366 0.174
40.7471 0.214
40.7576 0.214
40.7681 0.235
40.7787 0.194
40.7892 0.204
40.7997 0.194
40.8102 0.174
40.8208 0.153
40.8313 0.214
40.8418 0.235
40.8523 0.153
40.8629 0.204
40.8734 0.194
40.8839 0.276
40.8944 0.255
40.9049 0.163
40.9155 0.214
40.9260 0.194
40.9365 0.163
40.9470 0.194
40.9576 0.143
40.9681 0.153
40.9786 0.163
40.9891 0.214
40.9996 0.225
41.0102 0.184
41.0207 0.255
41.0312 0.112
41.0417 0.174
41.0523 0.194
41.0628 0.235
41.0733 0.214
41.0838 0.255
41.0943 0.153
41.1049 0.184
41.1154 0.163
41.1259 0.153
41.1364 0.112
41.1470 0.194
41.1575 0.123
41.1680 0.194
41.1785 0.214
41.1891 0.184
41.1996 0.184
41.2101 0.255
41.2206 0.266
41.2311 0.214
41.2417 0.266
41.2522 0.286
41.2627 0.204
41.2732 0.143
41.2838 0.174
41.2943 0.184
41.3048 0.235
41.3153 0.255
41.3258 0.204
41.3364 0.102
41.3469 0.153
41.3574 0.204
41.3679 0.255
41.3785 0.143
41.3890 0.163
41.3995 0.235
41.4100 0.153
41.4206 0.184
41.4311 0.143
41.4416 0.225
41.4521 0.266
41.4626 0.225
41.4732 0.184
41.4837 0.194
41.4942 0.174
41.5047 0.153
41.5153 0.184
41.5258 0.184
41.5363 0.133
41.5468 0.174
41.5573 0.184
41.5679 0.163
41.5784 0.266
41.5889 0.174
41.5994 0.204
41.6100 0.276
41.6205 0.266
41.6310 0.266
41.6415 0.123
41.6520 0.225
41.6626 0.204
41.6731 0.214
41.6836 0.204
41.6941 0.174
41.7047 0.255
41.7152 0.194
41.7257 0.163
41.7362 0.184
41.7468 0.204
41.7573 0.143
41.7678 0.184
41.7783 0.174
41.7888 0.347
41.7994 0.194
41.8099 0.327
41.8204 0.194
41.8309 0.296
41.8415 0.266
41.8520 0.112
41.8625 0.317
41.8730 0.225
41.8835 0.266
41.8941 0.296
41.9046 0.194
41.9151 0.286
41.9256 0.255
41.9362 0.296
41.9467 0.276
41.9572 0.460
41.9677 0.255
41.9783 0.378
41.9888 0.357
41.9993 0.378
42.0098 0.388
42.0203 0.531
42.0309 0.398
42.0414 0.613
42.0519 0.449
42.0624 0.633
42.0730 0.694
42.0835 0.705
42.0940 0.654
42.1045 0.848
42.1150 0.950
42.1256 1.083
42.1361 1.062
42.1466 1.185
42.1571 1.409
42.1677 1.818
42.1782 1.818
42.1887 2.053
42.1992 2.257
42.2097 2.431
42.2203 2.635
42.2308 2.941
42.2413 2.594
42.2518 2.839
42.2624 3.452
42.2729 3.595
42.2834 3.370
42.2939 3.350
42.3045 3.442
42.3150 3.431
42.3255 3.360
42.3360 2.972
42.3465 2.267
42.3571 2.134
42.3676 2.114
42.3781 1.900
42.3886 1.450
42.3992 1.317
42.4097 1.195
42.4202 1.215
42.4307 1.083
42.4412 0.919
42.4518 0.848
42.4623 0.807
42.4728 0.664
42.4833 0.654
42.4939 0.500
42.5044 0.449
42.5149 0.449
42.5254 0.460
42.5359 0.490
42.5465 0.368
42.5570 0.531
42.5675 0.378
42.5780 0.327
42.5886 0.296
42.5991 0.296
42.6096 0.388
42.6201 0.306
42.6307 0.398
42.6412 0.306
42.6517 0.296
42.6622 0.184
42.6727 0.327
42.6833 0.357
42.6938 0.347
42.7043 0.337
42.7148 0.276
42.7254 0.214
42.7359 0.357
42.7464 0.225
42.7569 0.306
42.7674 0.194
42.7780 0.204
42.7885 0.296
42.7990 0.266
42.8095 0.214
42.8201 0.184
42.8306 0.296
42.8411 0.184
42.8516 0.153
42.8622 0.235
42.8727 0.153
42.8832 0.245
42.8937 0.184
42.9042 0.204
42.9148 0.133
42.9253 0.204
42.9358 0.153
42.9463 0.174
42.9569 0.153
42.9674 0.184
42.9779 0.286
42.9884 0.194
42.9989 0.204
43.0095 0.225
43.0200 0.184
43.0305 0.194
43.0410 0.194
43.0516 0.123
43.0621 0.194
43.0726 0.225
43.0831 0.214
43.0936 0.245
43.1042 0.225
43.1147 0.153
43.1252 0.225
43.1357 0.235
43.1463 0.194
43.1568 0.123
43.1673 0.214
43.1778 0.194
43.1884 0.143
43.1989 0.184
43.2094 0.286
43.2199 0.123
43.2304 0.153
43.2410 0.153
43.2515 0.112
43.2620 0.204
43.2725 0.204
43.2831 0.255
43.2936 0.194
43.3041 0.143
43.3146 0.123
43.3251 0.286
43.3357 0.194
43.3462 0.266
43.3567 0.153
43.3672 0.266
43.3778 0.225
43.3883 0.225
43.3988 0.214
43.4093 0.204
43.4198 0.153
43.4304 0.214
43.4409 0.255
43.4514 0.174
43.4619 0.184
43.4725 0.184
43.4830 0.184
43.4935 0.184
43.5040 0.184
43.5146 0.194
43.5251 0.133
43.5356 0.214
43.5461 0.255
43.5566 0.174
43.5672 0.194
43.5777 0.163
43.5882 0.153
43.5987 0.153
43.6093 0.174
43.6198 0.174
43.6303 0.225
43.6408 0.102
43.6513 0.133
43.6619 0.235
43.6724 0.214
43.6829 0.153
43.6934 0.184
43.7040 0.194
43.7145 0.153
43.7250 0.153
43.7355 0.071
43.7461 0.153
43.7566 0.184
43.7671 0.153
43.7776 0.112
43.7881 0.276
43.7987 0.194
43.8092 0.184
43.8197 0.153
43.8302 0.163
43.8408 0.184
43.8513 0.174
43.8618 0.214
43.8723 0.174
43.8828 0.204
43.8934 0.194
43.9039 0.266
43.9144 0.123
43.9249 0.153
43.9355 0.153
43.9460 0.163
43.9565 0.235
43.9670 0.143
43.9775 0.174
43.9881 0.163
43.9986 0.245
44.0091 0.245
44.0196 0.266
44.0302 0.225
44.0407 0.266
44.0512 0.194
44.0617 0.194
44.0723 0.286
44.0828 0.174
44.0933 0.153
44.1038 0.235
44.1143 0.225
44.1249 0.276
44.1354 0.163
44.1459 0.286
44.1564 0.174
44.1670 0.214
44.1775 0.317
44.1880 0.245
44.1985 0.347
44.2090 0.408
44.2196 0.327
44.2301 0.296
44.2406 0.255
44.2511 0.317
44.2617 0.276
44.2722 0.296
44.2827 0.276
44.2932 0.388
44.3037 0.439
44.3143 0.531
44.3248 0.408
44.3353 0.408
44.3458 0.592
44.3564 0.480
44.3669 0.684
44.3774 0.858
44.3879 0.643
44.3985 0.827
44.4090 0.766
44.4195 1.185
44.4300 0.899
44.4405 1.001
44.4511 1.205
44.4616 1.072
44.4721 1.134
44.4826 1.164
44.4932 1.195
44.5037 1.031
44.5142 1.154
44.5247 0.888
44.5352 0.684
44.5458 0.888
44.5563 0.797
44.5668 0.786
44.5773 0.613
44.5879 0.623
44.5984 0.511
44.6089 0.592
44.6194 0.460
44.6300 0.439
44.6405 0.541
44.6510 0.511
44.6615 0.378
44.6720 0.470
44.6826 0.388
44.6931 0.276
44.7036 0.357
44.7141 0.337
44.7247 0.357
44.7352 0.286
44.7457 0.368
44.7562 0.398
44.7667 0.398
44.7773 0.327
44.7878 0.276
44.7983 0.296
44.8088 0.266
44.8194 0.347
44.8299 0.327
44.8404 0.357
44.8509 0.388
44.8614 0.398
44.8720 0.500
44.8825 0.378
44.8930 0.398
44.9035 0.470
44.9141 0.551
44.9246 0.684
44.9351 0.684
44.9456 0.470
44.9562 0.664
44.9667 0.970
44.9772 0.756
44.9877 0.878
44.9982 0.940
45.0088 0.827
45.0193 1.062
45.0298 0.970
45.0403 1.042
45.0509 1.083
45.0614 0.888
45.0719 0.766
45.0824 0.766
45.0929 0.551
45.1035 0.613
45.1140 0.633
45.1245 0.674
45.1350 0.705
45.1456 0.572
45.1561 0.582
45.1666 0.500
45.1771 0.449
45.1877 0.347
45.1982 0.337
45.2087 0.347
45.2192 0.296
45.2297 0.347
45.2403 0.317
45.2508 0.204
45.2613 0.214
45.2718 0.174
45.2824 0.225
45.2929 0.153
45.3034 0.245
45.3139 0.174
45.3244 0.194
45.3350 0.245
45.3455 0.276
45.3560 0.194
45.3665 0.143
45.3771 0.194
45.3876 0.235
45.3981 0.204
45.4086 0.225
45.4191 0.194
45.4297 0.143
45.4402 0.133
45.4507 0.214
45.4612 0.194
45.4718 0.255
45.4823 0.194
45.4928 0.174
45.5033 0.266
45.5139 0.133
45.5244 0.266
45.5349 0.204
45.5454 0.153
45.5559 0.174
45.5665 0.143
45.5770 0.327
45.5875 0.123
45.5980 0.123
45.6086 0.214
45.6191 0.153
45.6296 0.153
45.6401 0.204
45.6506 0.143
45.6612 0.255
45.6717 0.174
45.6822 0.194
45.6927 0.102
45.7033 0.153
45.7138 0.214
45.7243 0.225
45.7348 0.163
45.7453 0.123
45.7559 0.204
45.7664 0.266
45.7769 0.133
45.7874 0.194
45.7980 0.163
45.8085 0.133
45.8190 0.123
45.8295 0.153
45.8401 0.225
45.8506 0.174
45.8611 0.225
45.8716 0.163
45.8821 0.133
45.8927 0.204
45.9032 0.102
45.9137 0.153
45.9242 0.153
45.9348 0.123
45.9453 0.194
45.9558 0.143
45.9663 0.204
45.9768 0.174
45.9874 0.163
45.9979 0.184
46.0084 0.133
46.0189 0.123
46.0295 0.245
46.0400 0.123
46.0505 0.163
46.0610 0.235
46.0716 0.225
46.0821 0.184
46.0926 0.174
46.1031 0.194
46.1136 0.255
46.1242 0.194
46.1347 0.174
46.1452 0.194
46.1557 0.204
46.1663 0.174
46.1768 0.174
46.1873 0.245
46.1978 0.255
46.2083 0.225
46.2189 0.204
46.2294 0.266
46.2399 0.276
46.2504 0.286
46.2610 0.276
46.2715 0.235
46.2820 0.245
46.2925 0.449
46.3030 0.317
46.3136 0.368
46.3241 0.388
46.3346 0.439
46.3451 0.327
46.3557 0.551
46.3662 0.633
46.3767 0.490
46.3872 0.449
46.3978 0.521
46.4083 0.460
46.4188 0.603
46.4293 0.541
46.4398 0.531
46.4504 0.511
46.4609 0.500
46.4714 0.449
46.4819 0.511
46.4925 0.449
46.5030 0.429
46.5135 0.357
46.5240 0.286
46.5345 0.204
46.5451 0.306
46.5556 0.194
46.5661 0.296
46.5766 0.235
46.5872 0.347
46.5977 0.174
46.6082 0.214
46.6187 0.214
46.6292 0.194
46.6398 0.266
46.6503 0.143
46.6608 0.225
46.6713 0.204
46.6819 0.225
46.6924 0.174
46.7029 0.123
46.7134 0.163
46.7240 0.153
46.7345 0.266
46.7450 0.225
46.7555 0.296
46.7660 0.184
46.7766 0.163
46.7871 0.276
46.7976 0.235
46.8081 0.225
46.8187 0.235
46.8292 0.214
46.8397 0.133
46.8502 0.123
46.8607 0.163
46.8713 0.225
46.8818 0.214
46.8923 0.174
46.9028 0.163
46.9134 0.255
46.9239 0.225
46.9344 0.123
46.9449 0.214
46.9555 0.153
46.9660 0.112
46.9765 0.225
46.9870 0.123
46.9975 0.123
47.0081 0.174
47.0186 0.194
47.0291 0.163
47.0396 0.214
47.0502 0.245
47.0607 0.112
47.0712 0.204
47.0817 0.123
47.0922 0.225
47.1028 0.153
47.1133 0.225
47.1238 0.123
47.1343 0.133
47.1449 0.143
47.1554 0.123
47.1659 0.102
47.1764 0.143
47.1869 0.143
47.1975 0.133
47.2080 0.235
47.2185 0.235
47.2290 0.174
47.2396 0.214
47.2501 0.214
47.2606 0.153
47.2711 0.153
47.2817 0.163
47.2922 0.204
47.3027 0.143
47.3132 0.194
47.3237 0.143
47.3343 0.123
47.3448 0.174
47.3553 0.143
47.3658 0.225
47.3764 0.153
47.3869 0.153
47.3974 0.163
47.4079 0.174
47.4184 0.153
47.4290 0.204
47.4395 0.123
47.4500 0.163
47.4605 0.112
47.4711 0.245
47.4816 0.174
47.4921 0.163
47.5026 0.184
47.5131 0.163
47.5237 0.112
47.5342 0.235
47.5447 0.194
47.5552 0.133
47.5658 0.194
47.5763 0.214
47.5868 0.194
47.5973 0.123
47.6079 0.143
47.6184 0.194
47.6289 0.112
47.6394 0.194
47.6499 0.174
47.6605 0.102
47.6710 0.153
47.6815 0.123
47.6920 0.123
47.7026 0.123
47.7131 0.143
47.7236 0.225
47.7341 0.235
47.7446 0.204
47.7552 0.143
47.7657 0.174
47.7762 0.235
47.7867 0.204
47.7973 0.174
47.8078 0.123
47.8183 0.174
47.8288 0.204
47.8394 0.143
47.8499 0.235
47.8604 0.163
47.8709 0.204
47.8814 0.133
47.8920 0.143
47.9025 0.296
47.9130 0.143
47.9235 0.245
47.9341 0.123
47.9446 0.276
47.9551 0.214
47.9656 0.235
47.9761 0.194
47.9867 0.245
47.9972 0.225
48.0077 0.296
48.0182 0.245
48.0288 0.255
48.0393 0.337
48.0498 0.255
48.0603 0.347
48.0708 0.368
48.0814 0.470
48.0919 0.255
48.1024 0.255
48.1129 0.429
48.1235 0.460
48.1340 0.398
48.1445 0.490
48.1550 0.408
48.1656 0.388
48.1761 0.419
48.1866 0.429
48.1971 0.368
48.2076 0.337
48.2182 0.266
48.2287 0.245
48.2392 0.306
48.2497 0.245
48.2603 0.255
48.2708 0.184
48.2813 0.286
48.2918 0.255
48.3023 0.306
48.3129 0.204
48.3234 0.276
48.3339 0.225
48.3444 0.245
48.3550 0.235
48.3655 0.235
48.3760 0.184
48.3865 0.204
48.3970 0.184
48.4076 0.245
48.4181 0.184
48.4286 0.143
48.4391 0.245
48.4497 0.225
48.4602 0.184
48.4707 0.133
48.4812 0.204
48.4918 0.174
48.5023 0.286
48.5128 0.143
48.5233 0.143
48.5338 0.194
48.5444 0.163
48.5549 0.174
48.5654 0.143
48.5759 0.174
48.5865 0.286
48.5970 0.163
48.6075 0.266
48.6180 0.163
48.6285 0.174
48.6391 0.194
48.6496 0.225
48.6601 0.204
48.6706 0.235
48.6812 0.184
48.6917 0.235
48.7022 0.204
48.7127 0.245
48.7233 0.255
48.7338 0.184
48.7443 0.225
48.7548 0.194
48.7653 0.174
48.7759 0.194
48.7864 0.286
48.7969 0.266
48.8074 0.286
48.8180 0.225
48.8285 0.204
48.8390 0.245
48.8495 0.276
48.8600 0.225
48.8706 0.296
48.8811 0.296
48.8916 0.266
48.9021 0.419
48.9127 0.266
48.9232 0.337
48.9337 0.225
48.9442 0.378
48.9547 0.184
48.9653 0.429
48.9758 0.317
48.9863 0.337
48.9968 0.306
49.0074 0.480
49.0179 0.408
49.0284 0.419
49.0389 0.470
49.0495 0.470
49.0600 0.500
49.0705 0.419
49.0810 0.551
49.0915 0.654
49.1021 0.715
49.1126 0.551
49.1231 0.837
49.1336 0.909
49.1442 0.909
49.1547 1.103
49.1652 0.827
49.1757 0.991
49.1862 1.113
49.1968 1.542
49.2073 1.511
49.2178 1.757
49.2283 1.889
49.2389 1.920
49.2494 1.859
49.2599 1.940
49.2704 2.175
49.2810 2.145
49.2915 2.277
49.3020 2.226
49.3125 1.920
49.3230 1.787
49.3336 1.961
49.3441 1.940
49.3546 1.716
49.3651 1.675
49.3757 1.522
49.3862 1.471
49.3967 1.389
49.4072 1.195
49.4177 1.134
49.4283 0.899
49.4388 1.154
49.4493 1.001
49.4598 0.899
49.4704 0.735
49.4809 0.766
49.4914 0.582
49.5019 0.735
49.5124 0.613
49.5230 0.725
49.5335 0.582
49.5440 0.674
49.5545 0.562
49.5651 0.521
49.5756 0.521
49.5861 0.541
49.5966 0.480
49.6072 0.429
49.6177 0.429
49.6282 0.378
49.6387 0.388
49.6492 0.306
49.6598 0.378
49.6703 0.347
49.6808 0.398
49.6913 0.296
49.7019 0.378
49.7124 0.347
49.7229 0.419
49.7334 0.347
49.7439 0.204
49.7545 0.337
49.7650 0.368
49.7755 0.337
49.7860 0.337
49.7966 0.286
49.8071 0.276
49.8176 0.347
49.8281 0.317
49.8386 0.296
49.8492 0.286
49.8597 0.357
49.8702 0.204
49.8807 0.337
49.8913 0.317
49.9018 0.398
49.9123 0.347
49.9228 0.419
49.9334 0.357
49.9439 0.286
49.9544 0.408
49.9649 0.460
49.9754 0.378
49.9860 0.500
49.9965 0.541
50.0070 0.572
50.0175 0.480
50.0281 0.572
50.0386 0.684
50.0491 0.705
50.0596 0.654
50.0701 0.694
50.0807 0.705
50.0912 0.715
50.1017 0.929
50.1122 0.868
50.1228 0.817
50.1333 0.878
50.1438 1.001
50.1543 1.103
50.1649 1.062
50.1754 1.031
50.1859 1.215
50.1964 0.970
50.2069 1.031
50.2175 1.328
50.2280 1.256
50.2385 1.522
50.2490 1.277
50.2596 1.450
50.2701 1.716
50.2806 1.777
50.2911 1.869
50.3016 2.124
50.3122 1.869
50.3227 1.910
50.3332 2.318
50.3437 2.829
50.3543 2.778
50.3648 2.451
50.3753 2.461
50.3858 2.379
50.3963 2.134
50.4069 2.155
50.4174 2.247
50.4279 2.124
50.4384 2.390
50.4490 2.022
50.4595 2.053
50.4700 1.818
50.4805 1.705
50.4911 1.654
50.5016 1.603
50.5121 1.542
50.5226 1.501
50.5331 1.573
50.5437 1.532
50.5542 1.583
50.5647 1.511
50.5752 1.634
50.5858 1.614
50.5963 1.563
50.6068 1.614
50.6173 1.614
50.6278 1.665
50.6384 1.552
50.6489 1.654
50.6594 1.420
50.6699 1.460
50.6805 1.491
50.6910 1.195
50.7015 1.277
50.7120 1.205
50.7225 0.878
50.7331 0.868
50.7436 0.827
50.7541 0.746
50.7646 0.756
50.7752 0.848
50.7857 0.603
50.7962 0.603
50.8067 0.613
50.8173 0.603
50.8278 0.398
50.8383 0.572
50.8488 0.490
50.8593 0.439
50.8699 0.398
50.8804 0.327
50.8909 0.460
50.9014 0.276
50.9120 0.317
50.9225 0.317
50.9330 0.286
50.9435 0.214
50.9540 0.306
50.9646 0.266
50.9751 0.266
50.9856 0.347
50.9961 0.214
51.0067 0.214
51.0172 0.286
51.0277 0.204
51.0382 0.286
51.0488 0.235
51.0593 0.163
51.0698 0.235
51.0803 0.245
51.0908 0.214
51.1014 0.225
51.1119 0.092
51.1224 0.204
51.1329 0.194
51.1435 0.204
51.1540 0.225
51.1645 0.163
51.1750 0.163
51.1855 0.204
51.1961 0.143
51.2066 0.255
51.2171 0.194
51.2276 0.163
51.2382 0.214
51.2487 0.286
51.2592 0.347
51.2697 0.194
51.2802 0.214
51.2908 0.194
51.3013 0.235
51.3118 0.276
51.3223 0.194
51.3329 0.174
51.3434 0.214
51.3539 0.184
51.3644 0.245
51.3750 0.184
51.3855 0.306
51.3960 0.174
51.4065 0.214
51.4170 0.184
51.4276 0.276
51.4381 0.133
51.4486 0.153
51.4591 0.214
51.4697 0.153
51.4802 0.184
51.4907 0.143
51.5012 0.174
51.5117 0.123
51.5223 0.245
51.5328 0.163
51.5433 0.184
51.5538 0.225
51.5644 0.184
51.5749 0.184
51.5854 0.225
51.5959 0.153
51.6064 0.225
51.6170 0.225
51.6275 0.194
51.6380 0.112
51.6485 0.174
51.6591 0.194
51.6696 0.245
51.6801 0.317
51.6906 0.092
51.7012 0.153
51.7117 0.204
51.7222 0.225
51.7327 0.276
51.7432 0.153
51.7538 0.184
51.7643 0.133
51.7748 0.174
51.7853 0.245
51.7959 0.225
51.8064 0.204
51.8169 0.194
51.8274 0.266
51.8379 0.266
51.8485 0.153
51.8590 0.225
51.8695 0.163
51.8800 0.245
51.8906 0.184
51.9011 0.276
51.9116 0.225
51.9221 0.347
51.9327 0.255
51.9432 0.255
51.9537 0.317
51.9642 0.194
51.9747 0.327
51.9853 0.225
51.9958 0.347
52.0063 0.296
52.0168 0.368
52.0274 0.266
52.0379 0.378
52.0484 0.255
52.0589 0.327
52.0694 0.296
52.0800 0.347
52.0905 0.327
52.1010 0.347
52.1115 0.398
52.1221 0.368
52.1326 0.470
52.1431 0.398
52.1536 0.347
52.1641 0.357
52.1747 0.500
52.1852 0.521
52.1957 0.378
52.2062 0.490
52.2168 0.470
52.2273 0.643
52.2378 0.562
52.2483 0.541
52.2589 0.756
52.2694 0.603
52.2799 0.654
52.2904 0.807
52.3009 0.725
52.3115 1.021
52.3220 1.062
52.3325 0.868
52.3430 1.348
52.3536 1.052
52.3641 1.256
52.3746 1.205
52.3851 1.389
52.3956 1.389
52.4062 1.879
52.4167 1.787
52.4272 2.022
52.4377 2.604
52.4483 2.379
52.4588 2.584
52.4693 2.788
52.4798 3.676
52.4904 3.431
52.5009 4.075
52.5114 4.238
52.5219 4.381
52.5324 4.391
52.5430 4.933
52.5535 5.545
52.5640 5.933
52.5745 5.709
52.5851 6.189
52.5956 5.729
52.6061 5.596
52.6166 5.995
52.6271 5.504
52.6377 4.933
52.6482 5.137
52.6587 4.841
52.6692 4.371
52.6798 4.616
52.6903 4.310
52.7008 4.065
52.7113 4.054
52.7218 3.779
52.7324 3.687
52.7429 3.278
52.7534 3.186
52.7639 3.094
52.7745 3.156
52.7850 2.727
52.7955 3.023
52.8060 2.717
52.8166 2.196
52.8271 2.400
52.8376 2.349
52.8481 2.083
52.8586 1.889
52.8692 1.665
52.8797 1.767
52.8902 1.522
52.9007 1.266
52.9113 1.409
52.9218 0.960
52.9323 1.154
52.9428 1.093
52.9533 1.103
52.9639 0.817
52.9744 0.786
52.9849 0.786
52.9954 0.797
53.0060 0.694
53.0165 0.858
53.0270 0.613
53.0375 0.674
53.0480 0.633
53.0586 0.541
53.0691 0.582
53.0796 0.511
53.0901 0.541
53.1007 0.521
53.1112 0.276
53.1217 0.541
53.1322 0.521
53.1428 0.521
53.1533 0.449
53.1638 0.705
53.1743 0.623
53.1848 0.357
53.1954 0.541
53.2059 0.439
53.2164 0.470
53.2269 0.470
53.2375 0.470
53.2480 0.541
53.2585 0.541
53.2690 0.480
53.2795 0.439
53.2901 0.511
53.3006 0.439
53.3111 0.235
53.3216 0.490
53.3322 0.204
53.3427 0.327
53.3532 0.378
53.3637 0.225
53.3743 0.347
53.3848 0.347
53.3953 0.286
53.4058 0.337
53.4163 0.276
53.4269 0.337
53.4374 0.286
53.4479 0.174
53.4584 0.337
53.4690 0.255
53.4795 0.225
53.4900 0.286
53.5005 0.337
53.5110 0.266
53.5216 0.184
53.5321 0.245
53.5426 0.255
53.5531 0.194
53.5637 0.266
53.5742 0.214
53.5847 0.174
53.5952 0.174
53.6057 0.123
53.6163 0.163
53.6268 0.266
53.6373 0.266
53.6478 0.245
53.6584 0.204
53.6689 0.266
53.6794 0.204
53.6899 0.235
53.7005 0.163
53.7110 0.204
53.7215 0.194
53.7320 0.194
53.7425 0.214
53.7531 0.266
53.7636 0.214
53.7741 0.306
53.7846 0.143
53.7952 0.255
53.8057 0.245
53.8162 0.276
53.8267 0.235
53.8372 0.184
53.8478 0.225
53.8583 0.143
53.8688 0.133
53.8793 0.245
53.8899 0.214
53.9004 0.255
53.9109 0.163
53.9214 0.214
53.9319 0.194
53.9425 0.194
53.9530 0.153
53.9635 0.194
53.9740 0.255
53.9846 0.163
53.9951 0.133
54.0056 0.133
54.0161 0.123
54.0267 0.235
54.0372 0.225
54.0477 0.082
54.0582 0.194
54.0687 0.204
54.0793 0.174
54.0898 0.143
54.1003 0.235
54.1108 0.245
54.1214 0.255
54.1319 0.255
54.1424 0.163
54.1529 0.296
54.1634 0.235
54.1740 0.225
54.1845 0.245
54.1950 0.225
54.2055 0.235
54.2161 0.143
54.2266 0.102
54.2371 0.194
54.2476 0.174
54.2582 0.204
54.2687 0.286
54.2792 0.204
54.2897 0.204
54.3002 0.225
54.3108 0.163
54.3213 0.245
54.3318 0.133
54.3423 0.214
54.3529 0.184
54.3634 0.266
54.3739 0.194
54.3844 0.163
54.3949 0.235
54.4055 0.235
54.4160 0.286
54.4265 0.184
54.4370 0.184
54.4476 0.317
54.4581 0.204
54.4686 0.214
54.4791 0.214
54.4896 0.245
54.5002 0.235
54.5107 0.225
54.5212 0.296
54.5317 0.235
54.5423 0.327
54.5528 0.204
54.5633 0.306
54.5738 0.235
54.5844 0.255
54.5949 0.419
54.6054 0.276
54.6159 0.419
54.6264 0.225
54.6370 0.327
54.6475 0.235
54.6580 0.194
54.6685 0.368
54.6791 0.317
54.6896 0.398
54.7001 0.480
54.7106 0.470
54.7211 0.378
54.7317 0.266
54.7422 0.429
54.7527 0.429
54.7632 0.551
54.7738 0.439
54.7843 0.684
54.7948 0.551
54.8053 0.562
54.8158 0.531
54.8264 0.654
54.8369 0.776
54.8474 0.807
54.8579 0.817
54.8685 0.980
54.8790 1.072
54.8895 1.031
54.9000 1.113
54.9106 1.399
54.9211 1.348
54.9316 1.389
54.9421 1.859
54.9526 1.828
54.9632 1.991
54.9737 1.859
54.9842 2.145
54.9947 2.237
55.0053 2.441
55.0158 2.911
55.0263 3.125
55.0368 2.768
55.0473 2.859
55.0579 2.645
55.0684 2.645
55.0789 2.594
55.0894 2.400
55.1000 2.390
55.1105 2.165
55.1210 1.971
55.1315 1.879
55.1421 1.654
55.1526 1.409
55.1631 1.277
55.1736 1.389
55.1841 1.317
55.1947 1.328
55.2052 1.144
55.2157 1.225
55.2262 0.940
55.2368 0.868
55.2473 1.062
55.2578 0.960
55.2683 0.786
55.2788 1.011
55.2894 0.807
55.2999 0.950
55.3104 0.858
55.3209 0.848
55.3315 1.011
55.3420 1.011
55.3525 1.134
55.3630 1.083
55.3735 1.287
55.3841 1.164
55.3946 1.420
55.4051 1.736
55.4156 1.563
55.4262 1.593
55.4367 1.981
55.4472 1.900
55.4577 2.288
55.4683 2.267
55.4788 2.798
55.4893 2.757
55.4998 3.135
55.5103 3.350
55.5209 3.421
55.5314 3.370
55.5419 3.339
55.5524 3.472
55.5630 3.421
55.5735 3.278
55.5840 3.442
55.5945 2.982
55.6050 2.982
55.6156 2.808
55.6261 2.420
55.6366 2.114
55.6471 2.022
55.6577 1.716
55.6682 1.665
55.6787 1.705
55.6892 1.440
55.6998 1.123
55.7103 1.266
55.7208 1.093
55.7313 1.093
55.7418 1.083
55.7524 1.062
55.7629 0.929
55.7734 0.541
55.7839 0.654
55.7945 0.705
55.8050 0.684
55.8155 0.705
55.8260 0.664
55.8365 0.633
55.8471 0.521
55.8576 0.582
55.8681 0.613
55.8786 0.521
55.8892 0.429
55.8997 0.419
55.9102 0.388
55.9207 0.460
55.9312 0.276
55.9418 0.327
55.9523 0.419
55.9628 0.368
55.9733 0.266
55.9839 0.317
55.9944 0.449
56.0049 0.378
56.0154 0.296
56.0260 0.357
56.0365 0.337
56.0470 0.429
56.0575 0.266
56.0680 0.214
56.0786 0.317
56.0891 0.327
56.0996 0.255
56.1101 0.327
56.1207 0.317
56.1312 0.306
56.1417 0.296
56.1522 0.266
56.1627 0.214
56.1733 0.408
56.1838 0.368
56.1943 0.255
56.2048 0.306
56.2154 0.327
56.2259 0.337
56.2364 0.357
56.2469 0.357
56.2574 0.388
56.2680 0.439
56.2785 0.460
56.2890 0.337
56.2995 0.449
56.3101 0.398
56.3206 0.317
56.3311 0.613
56.3416 0.347
56.3522 0.368
56.3627 0.347
56.3732 0.480
56.3837 0.449
56.3942 0.562
56.4048 0.500
56.4153 0.582
56.4258 0.592
56.4363 0.725
56.4469 0.551
56.4574 0.541
56.4679 0.807
56.4784 0.899
56.4889 0.980
56.4995 0.919
56.5100 1.093
56.5205 1.001
56.5310 0.950
56.5416 1.144
56.5521 1.399
56.5626 1.379
56.5731 1.338
56.5837 1.808
56.5942 2.083
56.6047 1.910
56.6152 2.155
56.6257 2.584
56.6363 2.288
56.6468 2.737
56.6573 3.145
56.6678 3.023
56.6784 3.013
56.6889 3.268
56.6994 3.401
56.7099 3.258
56.7204 3.299
56.7310 3.278
56.7415 3.513
56.7520 3.299
56.7625 2.819
56.7731 2.972
56.7836 2.676
56.7941 2.339
56.8046 2.594
56.8151 2.441
56.8257 2.267
56.8362 1.900
56.8467 1.971
56.8572 1.900
56.8678 1.501
56.8783 1.389
56.8888 1.287
56.8993 1.307
56.9099 1.420
56.9204 1.144
56.9309 1.021
56.9414 1.011
56.9519 0.980
56.9625 0.848
56.9730 0.827
56.9835 0.756
56.9940 0.899
57.0046 0.725
57.0151 0.725
57.0256 0.633
57.0361 0.725
57.0466 0.572
57.0572 0.531
57.0677 0.419
57.0782 0.490
57.0887 0.368
57.0993 0.521
57.1098 0.419
57.1203 0.327
57.1308 0.398
57.1413 0.429
57.1519 0.347
57.1624 0.306
57.1729 0.490
57.1834 0.286
57.1940 0.245
57.2045 0.286
57.2150 0.255
57.2255 0.266
57.2361 0.337
57.2466 0.235
57.2571 0.317
57.2676 0.296
57.2781 0.327
57.2887 0.337
57.2992 0.337
57.3097 0.296
57.3202 0.245
57.3308 0.398
57.3413 0.317
57.3518 0.296
57.3623 0.286
57.3728 0.235
57.3834 0.255
57.3939 0.347
57.4044 0.317
57.4149 0.347
57.4255 0.255
57.4360 0.317
57.4465 0.378
57.4570 0.317
57.4676 0.347
57.4781 0.214
57.4886 0.317
57.4991 0.398
57.5096 0.378
57.5202 0.306
57.5307 0.470
57.5412 0.480
57.5517 0.306
57.5623 0.500
57.5728 0.460
57.5833 0.449
57.5938 0.470
57.6043 0.500
57.6149 0.654
57.6254 0.613
57.6359 0.623
57.6464 0.500
57.6570 0.541
57.6675 0.480
57.6780 0.654
57.6885 0.439
57.6990 0.521
57.7096 0.460
57.7201 0.449
57.7306 0.368
57.7411 0.582
57.7517 0.296
57.7622 0.337
57.7727 0.255
57.7832 0.317
57.7938 0.347
57.8043 0.408
57.8148 0.347
57.8253 0.245
57.8358 0.306
57.8464 0.266
57.8569 0.296
57.8674 0.306
57.8779 0.327
57.8885 0.266
57.8990 0.306
57.9095 0.388
57.9200 0.296
57.9305 0.327
57.9411 0.235
57.9516 0.306
57.9621 0.276
57.9726 0.306
57.9832 0.286
57.9937 0.286
58.0042 0.286
58.0147 0.255
58.0252 0.388
58.0358 0.347
58.0463 0.327
58.0568 0.266
58.0673 0.449
58.0779 0.429
58.0884 0.398
58.0989 0.460
58.1094 0.551
58.1200 0.531
58.1305 0.572
58.1410 0.664
58.1515 0.705
58.1620 0.654
58.1726 0.725
58.1831 0.827
58.1936 0.797
58.2041 1.001
58.2147 0.899
58.2252 1.379
58.2357 1.328
58.2462 1.246
58.2567 1.420
58.2673 1.287
58.2778 1.859
58.2883 1.695
58.2988 1.818
58.3094 2.042
58.3199 1.808
58.3304 2.155
58.3409 1.961
58.3515 1.991
58.3620 1.726
58.3725 2.063
58.3830 1.940
58.3935 1.808
58.4041 1.695
58.4146 1.695
58.4251 1.675
58.4356 1.430
58.4462 1.511
58.4567 1.134
58.4672 1.440
58.4777 1.113
58.4882 1.062
58.4988 0.848
58.5093 0.950
58.5198 0.837
58.5303 0.848
58.5409 0.603
58.5514 0.715
58.5619 0.715
58.5724 0.613
58.5829 0.562
58.5935 0.429
58.6040 0.541
58.6145 0.460
58.6250 0.480
58.6356 0.521
58.6461 0.419
58.6566 0.378
58.6671 0.449
58.6777 0.398
58.6882 0.439
58.6987 0.398
58.7092 0.276
58.7197 0.337
58.7303 0.306
58.7408 0.337
58.7513 0.347
58.7618 0.225
58.7724 0.296
58.7829 0.235
58.7934 0.163
58.8039 0.235
58.8144 0.245
58.8250 0.214
58.8355 0.174
58.8460 0.286
58.8565 0.194
58.8671 0.184
58.8776 0.143
58.8881 0.276
58.8986 0.184
58.9091 0.255
58.9197 0.204
58.9302 0.225
58.9407 0.235
58.9512 0.214
58.9618 0.123
58.9723 0.225
58.9828 0.204
58.9933 0.112
59.0039 0.286
59.0144 0.194
59.0249 0.194
59.0354 0.225
59.0459 0.133
59.0565 0.276
59.0670 0.112
59.0775 0.214
59.0880 0.255
59.0986 0.184
59.1091 0.235
59.1196 0.255
59.1301 0.194
59.1406 0.174
59.1512 0.214
59.1617 0.153
59.1722 0.214
59.1827 0.266
59.1933 0.184
59.2038 0.214
59.2143 0.255
59.2248 0.286
59.2354 0.184
59.2459 0.225
59.2564 0.133
59.2669 0.204
59.2774 0.255
59.2880 0.184
59.2985 0.255
59.3090 0.184
59.3195 0.204
59.3301 0.174
59.3406 0.204
59.3511 0.245
59.3616 0.204
59.3721 0.214
59.3827 0.112
59.3932 0.143
59.4037 0.153
59.4142 0.194
59.4248 0.214
59.4353 0.194
59.4458 0.163
59.4563 0.184
59.4668 0.163
59.4774 0.225
59.4879 0.255
59.4984 0.245
59.5089 0.174
59.5195 0.245
59.5300 0.184
59.5405 0.153
59.5510 0.153
59.5616 0.255
59.5721 0.194
59.5826 0.245
59.5931 0.255
59.6036 0.071
59.6142 0.225
59.6247 0.194
59.6352 0.235
59.6457 0.255
59.6563 0.163
59.6668 0.184
59.6773 0.204
59.6878 0.255
59.6983 0.317
59.7089 0.184
59.7194 0.225
59.7299 0.296
59.7404 0.194
59.7510 0.235
59.7615 0.204
59.7720 0.266
59.7825 0.204
59.7931 0.286
59.8036 0.163
59.8141 0.194
59.8246 0.204
59.8351 0.194
59.8457 0.204
59.8562 0.204
59.8667 0.143
59.8772 0.194
59.8878 0.204
59.8983 0.163
59.9088 0.194
59.9193 0.204
59.9298 0.174
59.9404 0.174
59.9509 0.225
59.9614 0.174
59.9719 0.184
59.9825 0.153
59.9930 0.194
60.0035 0.214
60.0140 0.204
60.0245 0.123
60.0351 0.112
60.0456 0.214
60.0561 0.163
60.0666 0.163
60.0772 0.204
60.0877 0.194
60.0982 0.214
60.1087 0.276
60.1193 0.225
60.1298 0.174
60.1403 0.194
60.1508 0.225
60.1613 0.133
60.1719 0.204
60.1824 0.194
60.1929 0.235
60.2034 0.194
60.2140 0.235
60.2245 0.163
60.2350 0.184
60.2455 0.174
60.2560 0.153
60.2666 0.204
60.2771 0.133
60.2876 0.194
60.2981 0.245
60.3087 0.225
60.3192 0.194
60.3297 0.123
60.3402 0.194
60.3507 0.123
60.3613 0.255
60.3718 0.194
60.3823 0.123
60.3928 0.163
60.4034 0.153
60.4139 0.174
60.4244 0.174
60.4349 0.266
60.4455 0.153
60.4560 0.214
60.4665 0.184
60.4770 0.194
60.4875 0.143
60.4981 0.143
60.5086 0.255
60.5191 0.225
60.5296 0.163
60.5402 0.214
60.5507 0.214
60.5612 0.143
60.5717 0.153
60.5822 0.184
60.5928 0.174
60.6033 0.174
60.6138 0.194
60.6243 0.184
60.6349 0.184
60.6454 0.204
60.6559 0.174
60.6664 0.184
60.6770 0.174
60.6875 0.123
60.6980 0.194
60.7085 0.143
60.7190 0.133
60.7296 0.276
60.7401 0.194
60.7506 0.092
60.7611 0.174
60.7717 0.266
60.7822 0.184
60.7927 0.184
60.8032 0.245
60.8137 0.204
60.8243 0.143
60.8348 0.174
60.8453 0.225
60.8558 0.123
60.8664 0.204
60.8769 0.143
60.8874 0.174
60.8979 0.235
60.9084 0.276
60.9190 0.184
60.9295 0.245
60.9400 0.184
60.9505 0.266
60.9611 0.194
60.9716 0.174
60.9821 0.133
60.9926 0.225
61.0032 0.184
61.0137 0.245
61.0242 0.225
61.0347 0.235
61.0452 0.204
61.0558 0.194
61.0663 0.163
61.0768 0.174
61.0873 0.163
61.0979 0.266
61.1084 0.266
61.1189 0.214
61.1294 0.286
61.1399 0.296
61.1505 0.214
61.1610 0.276
61.1715 0.306
61.1820 0.235
61.1926 0.225
61.2031 0.214
61.2136 0.266
61.2241 0.255
61.2346 0.286
61.2452 0.337
61.2557 0.235
61.2662 0.347
61.2767 0.337
61.2873 0.255
61.2978 0.286
61.3083 0.327
61.3188 0.286
61.3294 0.276
61.3399 0.317
61.3504 0.388
61.3609 0.388
61.3714 0.449
61.3820 0.439
61.3925 0.470
61.4030 0.562
61.4135 0.357
61.4241 0.347
61.4346 0.480
61.4451 0.449
61.4556 0.531
61.4661 0.715
61.4767 0.694
61.4872 0.633
61.4977 0.786
61.5082 0.786
61.5188 0.909
61.5293 0.878
61.5398 0.694
61.5503 1.123
61.5609 1.083
61.5714 1.052
61.5819 0.970
61.5924 1.246
61.6029 1.083
61.6135 1.093
61.6240 1.389
61.6345 1.573
61.6450 1.695
61.6556 1.593
61.6661 1.573
61.6766 2.053
61.6871 2.002
61.6976 2.277
61.7082 2.553
61.7187 2.369
61.7292 2.757
61.7397 2.962
61.7503 3.135
61.7608 3.595
61.7713 3.196
61.7818 3.666
61.7923 3.666
61.8029 3.922
61.8134 3.707
61.8239 3.768
61.8344 3.881
61.8450 3.881
61.8555 4.013
61.8660 4.259
61.8765 3.605
61.8871 4.228
61.8976 3.748
61.9081 3.625
61.9186 3.533
61.9291 3.431
61.9397 3.605
61.9502 3.442
61.9607 3.350
61.9712 3.207
61.9818 3.217
61.9923 3.084
62.0028 3.135
62.0133 2.849
62.0238 2.706
62.0344 2.655
62.0449 2.390
62.0554 2.584
62.0659 2.614
62.0765 2.665
62.0870 2.328
62.0975 2.645
62.1080 2.757
62.1185 2.870
62.1291 3.033
62.1396 2.890
62.1501 3.084
62.1606 2.635
62.1712 2.696
62.1817 2.808
62.1922 2.757
62.2027 2.635
62.2133 2.410
62.2238 2.145
62.2343 2.267
62.2448 1.920
62.2553 2.053
62.2659 1.838
62.2764 1.420
62.2869 1.695
62.2974 1.246
62.3080 1.225
62.3185 1.358
62.3290 1.072
62.3395 1.011
62.3500 1.134
62.3606 0.991
62.3711 0.858
62.3816 0.817
62.3921 0.929
62.4027 0.633
62.4132 0.735
62.4237 0.664
62.4342 0.633
62.4448 0.490
62.4553 0.715
62.4658 0.511
62.4763 0.408
62.4868 0.521
62.4974 0.398
62.5079 0.490
62.5184 0.480
62.5289 0.368
62.5395 0.296
62.5500 0.398
62.5605 0.368
62.5710 0.470
62.5815 0.245
62.5921 0.317
62.6026 0.337
62.6131 0.378
62.6236 0.347
62.6342 0.388
62.6447 0.286
62.6552 0.184
62.6657 0.276
62.6762 0.245
62.6868 0.296
62.6973 0.347
62.7078 0.266
62.7183 0.357
62.7289 0.266
62.7394 0.286
62.7499 0.357
62.7604 0.276
62.7710 0.225
62.7815 0.225
62.7920 0.245
62.8025 0.214
62.8130 0.204
62.8236 0.184
62.8341 0.286
62.8446 0.153
62.8551 0.235
62.8657 0.194
62.8762 0.225
62.8867 0.204
62.8972 0.266
62.9077 0.092
62.9183 0.255
62.9288 0.112
62.9393 0.214
62.9498 0.225
62.9604 0.235
62.9709 0.245
62.9814 0.235
62.9919 0.163
63.0025 0.214
63.0130 0.204
63.0235 0.255
63.0340 0.337
63.0445 0.102
63.0551 0.204
63.0656 0.204
63.0761 0.225
63.0866 0.143
63.0972 0.245
63.1077 0.194
63.1182 0.204
63.1287 0.225
63.1392 0.174
63.1498 0.143
63.1603 0.153
63.1708 0.123
63.1813 0.174
63.1919 0.194
63.2024 0.255
63.2129 0.143
63.2234 0.184
63.2339 0.184
63.2445 0.123
63.2550 0.184
63.2655 0.143
63.2760 0.163
63.2866 0.123
63.2971 0.184
63.3076 0.133
63.3181 0.174
63.3287 0.245
63.3392 0.204
63.3497 0.214
63.3602 0.235
63.3707 0.174
63.3813 0.204
63.3918 0.133
63.4023 0.133
63.4128 0.153
63.4234 0.225
63.4339 0.153
63.4444 0.174
63.4549 0.225
63.4654 0.163
63.4760 0.184
63.4865 0.204
63.4970 0.245
63.5075 0.214
63.5181 0.225
63.5286 0.194
63.5391 0.255
63.5496 0.184
63.5601 0.225
63.5707 0.204
63.5812 0.133
63.5917 0.123
63.6022 0.184
63.6128 0.225
63.6233 0.153
63.6338 0.184
63.6443 0.245
63.6549 0.296
63.6654 0.184
63.6759 0.194
63.6864 0.194
63.6969 0.184
63.7075 0.225
63.7180 0.235
63.7285 0.225
63.7390 0.245
63.7496 0.143
63.7601 0.174
63.7706 0.225
63.7811 0.184
63.7916 0.194
63.8022 0.225
63.8127 0.204
63.8232 0.276
63.8337 0.276
63.8443 0.235
63.8548 0.306
63.8653 0.296
63.8758 0.286
63.8864 0.347
63.8969 0.276
63.9074 0.296
63.9179 0.286
63.9284 0.419
63.9390 0.378
63.9495 0.419
63.9600 0.286
63.9705 0.388
63.9811 0.490
63.9916 0.398
64.0021 0.511
64.0126 0.551
64.0231 0.674
64.0337 0.705
64.0442 0.643
64.0547 0.603
64.0652 0.664
64.0758 0.633
64.0863 0.623
64.0968 0.664
64.1073 0.797
64.1178 0.572
64.1284 0.684
64.1389 0.511
64.1494 0.531
64.1599 0.388
64.1705 0.511
64.1810 0.408
64.1915 0.429
64.2020 0.378
64.2126 0.357
64.2231 0.368
64.2336 0.276
64.2441 0.317
64.2546 0.398
64.2652 0.276
64.2757 0.368
64.2862 0.327
64.2967 0.194
64.3073 0.245
64.3178 0.245
64.3283 0.235
64.3388 0.286
64.3493 0.337
64.3599 0.174
64.3704 0.235
64.3809 0.194
64.3914 0.286
64.4020 0.174
64.4125 0.225
64.4230 0.235
64.4335 0.255
64.4440 0.204
64.4546 0.225
64.4651 0.143
64.4756 0.337
64.4861 0.266
64.4967 0.276
64.5072 0.184
64.5177 0.204
64.5282 0.255
64.5388 0.235
64.5493 0.255
64.5598 0.184
64.5703 0.204
64.5808 0.255
64.5914 0.306
64.6019 0.214
64.6124 0.276
64.6229 0.286
64.6335 0.255
64.6440 0.317
64.6545 0.214
64.6650 0.357
64.6755 0.276
64.6861 0.276
64.6966 0.347
64.7071 0.317
64.7176 0.255
64.7282 0.204
64.7387 0.337
64.7492 0.296
64.7597 0.317
64.7703 0.153
64.7808 0.286
64.7913 0.204
64.8018 0.286
64.8123 0.163
64.8229 0.143
64.8334 0.286
64.8439 0.153
64.8544 0.225
64.8650 0.153
64.8755 0.225
64.8860 0.235
64.8965 0.245
64.9070 0.184
64.9176 0.174
64.9281 0.245
64.9386 0.204
64.9491 0.184
64.9597 0.214
64.9702 0.092
64.9807 0.163
64.9912 0.194
65.0017 0.153
65.0123 0.296
65.0228 0.133
65.0333 0.255
65.0438 0.143
65.0544 0.194
65.0649 0.194
65.0754 0.174
65.0859 0.174
65.0965 0.204
65.1070 0.214
65.1175 0.123
65.1280 0.112
65.1385 0.235
65.1491 0.092
65.1596 0.112
65.1701 0.174
65.1806 0.163
65.1912 0.245
65.2017 0.163
65.2122 0.163
65.2227 0.174
65.2332 0.286
65.2438 0.143
65.2543 0.184
65.2648 0.184
65.2753 0.174
65.2859 0.194
65.2964 0.143
65.3069 0.143
65.3174 0.184
65.3279 0.194
65.3385 0.123
65.3490 0.163
65.3595 0.153
65.3700 0.184
65.3806 0.174
65.3911 0.266
65.4016 0.255
65.4121 0.112
65.4227 0.255
65.4332 0.214
65.4437 0.245
65.4542 0.276
65.4647 0.194
65.4753 0.245
65.4858 0.368
65.4963 0.306
65.5068 0.204
65.5174 0.286
65.5279 0.306
65.5384 0.378
65.5489 0.255
65.5594 0.235
65.5700 0.225
65.5805 0.306
65.5910 0.306
65.6015 0.286
65.6121 0.266
65.6226 0.184
65.6331 0.306
65.6436 0.286
65.6542 0.266
65.6647 0.194
65.6752 0.266
65.6857 0.296
65.6962 0.235
65.7068 0.306
65.7173 0.266
65.7278 0.296
65.7383 0.245
65.7489 0.204
65.7594 0.266
65.7699 0.204
65.7804 0.347
65.7909 0.286
65.8015 0.347
65.8120 0.347
65.8225 0.388
65.8330 0.317
65.8436 0.347
65.8541 0.317
65.8646 0.470
65.8751 0.470
65.8856 0.562
65.8962 0.664
65.9067 0.592
65.9172 0.551
65.9277 0.460
65.9383 0.735
65.9488 0.664
65.9593 0.694
65.9698 0.664
65.9804 0.603
65.9909 0.603
66.0014 0.613
66.0119 0.592
66.0224 0.572
66.0330 0.531
66.0435 0.613
66.0540 0.531
66.0645 0.480
66.0751 0.480
66.0856 0.592
66.0961 0.582
66.1066 0.511
66.1171 0.439
66.1277 0.592
66.1382 0.521
66.1487 0.419
66.1592 0.633
66.1698 0.603
66.1803 0.449
66.1908 0.429
66.2013 0.562
66.2119 0.592
66.2224 0.541
66.2329 0.654
66.2434 0.500
66.2539 0.674
66.2645 0.694
66.2750 0.725
66.2855 0.694
66.2960 0.694
66.3066 1.021
66.3171 0.837
66.3276 0.960
66.3381 0.868
66.3486 0.797
66.3592 0.929
66.3697 1.215
66.3802 1.164
66.3907 1.317
66.4013 1.236
66.4118 1.358
66.4223 1.154
66.4328 1.379
66.4433 1.440
66.4539 1.164
66.4644 1.001
66.4749 0.970
66.4854 1.174
66.4960 0.970
66.5065 0.940
66.5170 0.868
66.5275 0.797
66.5381 0.633
66.5486 0.654
66.5591 0.429
66.5696 0.500
66.5801 0.551
66.5907 0.551
66.6012 0.449
66.6117 0.521
66.6222 0.592
66.6328 0.449
66.6433 0.327
66.6538 0.439
66.6643 0.306
66.6748 0.266
66.6854 0.327
66.6959 0.357
66.7064 0.306
66.7169 0.327
66.7275 0.378
66.7380 0.266
66.7485 0.235
66.7590 0.347
66.7695 0.225
66.7801 0.286
66.7906 0.245
66.8011 0.296
66.8116 0.214
66.8222 0.255
66.8327 0.255
66.8432 0.296
66.8537 0.123
66.8643 0.276
66.8748 0.194
66.8853 0.174
66.8958 0.266
66.9063 0.194
66.9169 0.194
66.9274 0.225
66.9379 0.214
66.9484 0.153
66.9590 0.184
66.9695 0.204
66.9800 0.214
66.9905 0.184
67.0010 0.276
67.0116 0.245
67.0221 0.235
67.0326 0.184
67.0431 0.327
67.0537 0.276
67.0642 0.214
67.0747 0.245
67.0852 0.317
67.0958 0.245
67.1063 0.378
67.1168 0.255
67.1273 0.266
67.1378 0.286
67.1484 0.419
67.1589 0.276
67.1694 0.276
67.1799 0.327
67.1905 0.603
67.2010 0.327
67.2115 0.429
67.2220 0.429
67.2325 0.480
67.2431 0.306
67.2536 0.408
67.2641 0.398
67.2746 0.531
67.2852 0.449
67.2957 0.429
67.3062 0.470
67.3167 0.480
67.3272 0.439
67.3378 0.664
67.3483 0.562
67.3588 0.572
67.3693 0.603
67.3799 0.643
67.3904 0.541
67.4009 0.603
67.4114 0.643
67.4220 0.684
67.4325 0.694
67.4430 0.888
67.4535 0.746
67.4640 0.827
67.4746 0.970
67.4851 0.909
67.4956 0.970
67.5061 1.001
67.5167 1.011
67.5272 1.174
67.5377 0.980
67.5482 0.980
67.5587 1.031
67.5693 1.195
67.5798 0.817
67.5903 0.960
67.6008 0.970
67.6114 0.909
67.6219 0.888
67.6324 0.786
67.6429 0.735
67.6534 0.766
67.6640 0.684
67.6745 0.633
67.6850 0.480
67.6955 0.613
67.7061 0.582
67.7166 0.521
67.7271 0.449
67.7376 0.572
67.7482 0.460
67.7587 0.347
67.7692 0.296
67.7797 0.327
67.7902 0.368
67.8008 0.245
67.8113 0.225
67.8218 0.368
67.8323 0.337
67.8429 0.521
67.8534 0.357
67.8639 0.327
67.8744 0.235
67.8849 0.286
67.8955 0.184
67.9060 0.357
67.9165 0.286
67.9270 0.408
67.9376 0.276
67.9481 0.337
67.9586 0.286
67.9691 0.296
67.9797 0.439
67.9902 0.255
68.0007 0.398
68.0112 0.419
68.0217 0.378
68.0323 0.449
68.0428 0.419
68.0533 0.327
68.0638 0.419
68.0744 0.398
68.0849 0.286
68.0954 0.347
68.1059 0.214
68.1164 0.429
68.1270 0.480
68.1375 0.408
68.1480 0.562
68.1585 0.480
68.1691 0.419
68.1796 0.439
68.1901 0.429
68.2006 0.266
68.2111 0.327
68.2217 0.398
68.2322 0.460
68.2427 0.368
68.2532 0.378
68.2638 0.419
68.2743 0.306
68.2848 0.419
68.2953 0.408
68.3059 0.419
68.3164 0.449
68.3269 0.408
68.3374 0.347
68.3479 0.368
68.3585 0.480
68.3690 0.460
68.3795 0.327
68.3900 0.347
68.4006 0.419
68.4111 0.378
68.4216 0.408
68.4321 0.378
68.4426 0.266
68.4532 0.357
68.4637 0.255
68.4742 0.327
68.4847 0.347
68.4953 0.296
68.5058 0.286
68.5163 0.276
68.5268 0.266
68.5373 0.286
68.5479 0.337
68.5584 0.194
68.5689 0.245
68.5794 0.235
68.5900 0.204
68.6005 0.225
68.6110 0.266
68.6215 0.204
68.6321 0.163
68.6426 0.225
68.6531 0.225
68.6636 0.225
68.6741 0.235
68.6847 0.235
68.6952 0.204
68.7057 0.184
68.7162 0.163
68.7268 0.266
68.7373 0.255
68.7478 0.225
68.7583 0.235
68.7688 0.194
68.7794 0.204
68.7899 0.194
68.8004 0.194
68.8109 0.194
68.8215 0.286
68.8320 0.174
68.8425 0.143
68.8530 0.102
68.8636 0.174
68.8741 0.225
68.8846 0.163
68.8951 0.123
68.9056 0.194
68.9162 0.255
68.9267 0.296
68.9372 0.204
68.9477 0.204
68.9583 0.092
68.9688 0.174
68.9793 0.153
68.9898 0.163
69.0003 0.194
69.0109 0.194
69.0214 0.245
69.0319 0.184
69.0424 0.174
69.0530 0.184
69.0635 0.123
69.0740 0.214
69.0845 0.204
69.0950 0.102
69.1056 0.133
69.1161 0.235
69.1266 0.255
69.1371 0.245
69.1477 0.245
69.1582 0.133
69.1687 0.245
69.1792 0.276
69.1898 0.276
69.2003 0.214
69.2108 0.327
69.2213 0.296
69.2318 0.214
69.2424 0.296
69.2529 0.245
69.2634 0.286
69.2739 0.296
69.2845 0.255
69.2950 0.327
69.3055 0.286
69.3160 0.347
69.3265 0.306
69.3371 0.276
69.3476 0.388
69.3581 0.460
69.3686 0.521
69.3792 0.439
69.3897 0.562
69.4002 0.408
69.4107 0.500
69.4212 0.592
69.4318 0.582
69.4423 0.572
69.4528 0.654
69.4633 0.674
69.4739 0.654
69.4844 0.735
69.4949 0.633
69.5054 0.633
69.5160 0.572
69.5265 0.674
69.5370 0.643
69.5475 0.592
69.5580 0.551
69.5686 0.623
69.5791 0.572
69.5896 0.541
69.6001 0.398
69.6107 0.419
69.6212 0.388
69.6317 0.327
69.6422 0.368
69.6527 0.378
69.6633 0.296
69.6738 0.306
69.6843 0.306
69.6948 0.368
69.7054 0.317
69.7159 0.388
69.7264 0.255
69.7369 0.357
69.7475 0.255
69.7580 0.347
69.7685 0.317
69.7790 0.357
69.7895 0.276
69.8001 0.266
69.8106 0.286
69.8211 0.408
69.8316 0.296
69.8422 0.327
69.8527 0.419
69.8632 0.388
69.8737 0.429
69.8842 0.368
69.8948 0.317
69.9053 0.429
69.9158 0.398
69.9263 0.449
69.9369 0.460
69.9474 0.419
69.9579 0.378
69.9684 0.470
69.9789 0.582
69.9895 0.460
70.0000 0.531
70.0105 0.531
70.0210 0.603
70.0316 0.746
70.0421 0.633
70.0526 0.776
70.0631 1.001
70.0737 0.858
70.0842 0.868
70.0947 0.858
70.1052 1.042
70.1157 1.215
70.1263 1.307
70.1368 1.205
70.1473 1.297
70.1578 1.491
70.1684 1.491
70.1789 1.450
70.1894 1.695
70.1999 1.675
70.2104 1.460
70.2210 1.685
70.2315 1.583
70.2420 1.603
70.2525 1.654
70.2631 1.675
70.2736 1.450
70.2841 1.685
70.2946 1.307
70.3052 1.409
70.3157 1.287
70.3262 1.215
70.3367 1.287
70.3472 1.083
70.3578 1.103
70.3683 0.960
70.3788 0.878
70.3893 0.899
70.3999 0.858
70.4104 1.031
70.4209 0.766
70.4314 0.827
70.4419 0.756
70.4525 0.490
70.4630 0.572
70.4735 0.541
70.4840 0.664
70.4946 0.419
70.5051 0.582
70.5156 0.337
70.5261 0.480
70.5366 0.419
70.5472 0.408
70.5577 0.368
70.5682 0.470
70.5787 0.378
70.5893 0.398
70.5998 0.347
70.6103 0.490
70.6208 0.255
70.6314 0.347
70.6419 0.398
70.6524 0.266
70.6629 0.194
70.6734 0.245
70.6840 0.225
70.6945 0.225
70.7050 0.266
70.7155 0.225
70.7261 0.286
70.7366 0.388
70.7471 0.194
70.7576 0.276
70.7681 0.174
70.7787 0.153
70.7892 0.214
70.7997 0.163
70.8102 0.214
70.8208 0.235
70.8313 0.153
70.8418 0.225
70.8523 0.214
70.8628 0.225
70.8734 0.266
70.8839 0.204
70.8944 0.194
70.9049 0.204
70.9155 0.194
70.9260 0.143
70.9365 0.225
70.9470 0.225
70.9576 0.204
70.9681 0.276
70.9786 0.225
70.9891 0.225
70.9996 0.337
71.0102 0.245
71.0207 0.184
71.0312 0.235
71.0417 0.112
71.0523 0.266
71.0628 0.286
71.0733 0.225
71.0838 0.184
71.0943 0.163
71.1049 0.306
71.1154 0.174
71.1259 0.112
71.1364 0.255
71.1470 0.204
71.1575 0.235
71.1680 0.296
71.1785 0.337
71.1891 0.296
71.1996 0.317
71.2101 0.286
71.2206 0.368
71.2311 0.337
71.2417 0.214
71.2522 0.357
71.2627 0.368
71.2732 0.266
71.2838 0.286
71.2943 0.368
71.3048 0.347
71.3153 0.439
71.3258 0.531
71.3364 0.582
71.3469 0.500
71.3574 0.541
71.3679 0.419
71.3785 0.613
71.3890 0.551
71.3995 0.541
71.4100 0.500
71.4205 0.643
71.4311 0.592
71.4416 0.715
71.4521 0.603
71.4626 0.572
71.4732 0.551
71.4837 0.572
71.4942 0.531
71.5047 0.654
71.5153 0.449
71.5258 0.521
71.5363 0.408
71.5468 0.419
71.5573 0.408
71.5679 0.388
71.5784 0.490
71.5889 0.368
71.5994 0.439
71.6100 0.378
71.6205 0.429
71.6310 0.439
71.6415 0.429
71.6520 0.511
71.6626 0.378
71.6731 0.368
71.6836 0.419
71.6941 0.286
71.7047 0.276
71.7152 0.337
71.7257 0.439
71.7362 0.347
71.7467 0.337
71.7573 0.327
71.7678 0.378
71.7783 0.419
71.7888 0.368
71.7994 0.347
71.8099 0.357
71.8204 0.388
71.8309 0.429
71.8415 0.490
71.8520 0.511
71.8625 0.317
71.8730 0.521
71.8835 0.429
71.8941 0.480
71.9046 0.654
71.9151 0.572
71.9256 0.592
71.9362 0.613
71.9467 0.551
71.9572 0.623
71.9677 0.705
71.9782 0.633
71.9888 0.531
71.9993 0.623
72.0098 0.470
72.0203 0.684
72.0309 0.715
72.0414 0.858
72.0519 0.827
72.0624 0.603
72.0730 0.715
72.0835 0.715
72.0940 0.562
72.1045 0.674
72.1150 0.643
72.1256 0.725
72.1361 0.868
72.1466 0.817
72.1571 0.807
72.1677 0.817
72.1782 0.991
72.1887 0.766
72.1992 0.756
72.2097 0.909
72.2203 0.766
72.2308 1.031
72.2413 0.929
72.2518 1.348
72.2624 1.113
72.2729 1.236
72.2834 1.215
72.2939 1.215
72.3044 1.471
72.3150 1.297
72.3255 1.307
72.3360 1.256
72.3465 1.471
72.3571 1.665
72.3676 1.716
72.3781 1.522
72.3886 1.838
72.3992 1.593
72.4097 1.522
72.4202 1.348
72.4307 1.348
72.4412 1.348
72.4518 1.195
72.4623 1.164
72.4728 1.368
72.4833 1.256
72.4939 1.123
72.5044 1.042
72.5149 0.888
72.5254 0.919
72.5359 0.766
72.5465 0.786
72.5570 0.725
72.5675 0.705
72.5780 0.664
72.5886 0.654
72.5991 0.694
72.6096 0.521
72.6201 0.511
72.6306 0.521
72.6412 0.674
72.6517 0.531
72.6622 0.388
72.6727 0.551
72.6833 0.357
72.6938 0.368
72.7043 0.419
72.7148 0.337
72.7254 0.357
72.7359 0.419
72.7464 0.470
72.7569 0.357
72.7674 0.317
72.7780 0.408
72.7885 0.276
72.7990 0.276
72.8095 0.327
72.8201 0.419
72.8306 0.317
72.8411 0.184
72.8516 0.357
72.8621 0.327
72.8727 0.317
72.8832 0.296
72.8937 0.174
72.9042 0.255
72.9148 0.245
72.9253 0.174
72.9358 0.276
72.9463 0.214
72.9569 0.214
72.9674 0.245
72.9779 0.276
72.9884 0.184
72.9989 0.225
73.0095 0.266
73.0200 0.204
73.0305 0.214
73.0410 0.235
73.0516 0.133
73.0621 0.255
73.0726 0.225
73.0831 0.184
73.0936 0.245
73.1042 0.276
73.1147 0.266
73.1252 0.214
73.1357 0.225
73.1463 0.163
73.1568 0.225
73.1673 0.174
73.1778 0.214
73.1883 0.266
73.1989 0.286
73.2094 0.266
73.2199 0.194
73.2304 0.235
73.2410 0.184
73.2515 0.225
73.2620 0.214
73.2725 0.225
73.2831 0.317
73.2936 0.225
73.3041 0.245
73.3146 0.255
73.3251 0.306
73.3357 0.276
73.3462 0.225
73.3567 0.235
73.3672 0.255
73.3778 0.245
73.3883 0.235
73.3988 0.378
73.4093 0.368
73.4198 0.327
73.4304 0.214
73.4409 0.296
73.4514 0.378
73.4619 0.286
73.4725 0.521
73.4830 0.429
73.4935 0.562
73.5040 0.449
73.5146 0.398
73.5251 0.500
73.5356 0.419
73.5461 0.613
73.5566 0.408
73.5672 0.603
73.5777 0.439
73.5882 0.327
73.5987 0.521
73.6093 0.490
73.6198 0.541
73.6303 0.347
73.6408 0.511
73.6513 0.408
73.6619 0.378
73.6724 0.357
73.6829 0.408
73.6934 0.327
73.7040 0.317
73.7145 0.378
73.7250 0.327
73.7355 0.266
73.7460 0.296
73.7566 0.286
73.7671 0.429
73.7776 0.296
73.7881 0.225
73.7987 0.296
73.8092 0.266
73.8197 0.276
73.8302 0.276
73.8408 0.306
73.8513 0.174
73.8618 0.255
73.8723 0.204
73.8828 0.306
73.8934 0.266
73.9039 0.296
73.9144 0.225
73.9249 0.214
73.9355 0.214
73.9460 0.204
73.9565 0.225
73.9670 0.143
73.9775 0.225
73.9881 0.204
73.9986 0.235
74.0091 0.235
74.0196 0.235
74.0302 0.276
74.0407 0.225
74.0512 0.225
74.0617 0.266
74.0722 0.255
74.0828 0.357
74.0933 0.255
74.1038 0.408
74.1143 0.327
74.1249 0.255
74.1354 0.235
74.1459 0.204
74.1564 0.347
74.1670 0.327
74.1775 0.306
74.1880 0.439
74.1985 0.531
74.2090 0.388
74.2196 0.500
74.2301 0.429
74.2406 0.419
74.2511 0.490
74.2617 0.500
74.2722 0.674
74.2827 0.623
74.2932 0.582
74.3037 0.694
74.3143 0.684
74.3248 0.919
74.3353 0.684
74.3458 0.817
74.3564 1.011
74.3669 1.031
74.3774 0.970
74.3879 1.083
74.3985 0.817
74.4090 1.031
74.4195 1.450
74.4300 1.195
74.4405 1.287
74.4511 1.185
74.4616 1.215
74.4721 1.062
74.4826 1.052
74.4932 1.072
74.5037 0.919
74.5142 0.940
74.5247 1.031
74.5352 0.991
74.5458 0.868
74.5563 0.654
74.5668 0.664
74.5773 0.715
74.5879 0.623
74.5984 0.643
74.6089 0.582
74.6194 0.603
74.6299 0.633
74.6405 0.429
74.6510 0.470
74.6615 0.429
74.6720 0.470
74.6826 0.429
74.6931 0.470
74.7036 0.337
74.7141 0.439
74.7247 0.398
74.7352 0.337
74.7457 0.470
74.7562 0.368
74.7667 0.245
74.7773 0.327
74.7878 0.429
74.7983 0.276
74.8088 0.184
74.8194 0.255
74.8299 0.296
74.8404 0.317
74.8509 0.266
74.8614 0.245
74.8720 0.266
74.8825 0.235
74.8930 0.378
74.9035 0.357
74.9141 0.317
74.9246 0.276
74.9351 0.368
74.9456 0.317
74.9561 0.204
74.9667 0.245
74.9772 0.266
74.9877 0.235
74.9982 0.194
75.0088 0.429
75.0193 0.368
75.0298 0.337
75.0403 0.357
75.0509 0.245
75.0614 0.317
75.0719 0.337
75.0824 0.368
75.0929 0.429
75.1035 0.378
75.1140 0.398
75.1245 0.306
75.1350 0.296
75.1456 0.368
75.1561 0.378
75.1666 0.398
75.1771 0.388
75.1876 0.378
75.1982 0.368
75.2087 0.408
75.2192 0.296
75.2297 0.347
75.2403 0.184
75.2508 0.490
75.2613 0.306
75.2718 0.327
75.2824 0.296
75.2929 0.388
75.3034 0.306
75.3139 0.286
75.3244 0.317
75.3350 0.225
75.3455 0.306
75.3560 0.184
75.3665 0.276
75.3771 0.306
75.3876 0.357
75.3981 0.286
75.4086 0.306
75.4191 0.347
75.4297 0.245
75.4402 0.306
75.4507 0.296
75.4612 0.368
75.4718 0.255
75.4823 0.184
75.4928 0.245
75.5033 0.337
75.5138 0.235
75.5244 0.255
75.5349 0.337
75.5454 0.408
75.5559 0.306
75.5665 0.306
75.5770 0.347
75.5875 0.357
75.5980 0.460
75.6086 0.327
75.6191 0.347
75.6296 0.388
75.6401 0.408
75.6506 0.398
75.6612 0.317
75.6717 0.255
75.6822 0.388
75.6927 0.480
75.7033 0.296
75.7138 0.480
75.7243 0.470
75.7348 0.337
75.7453 0.357
75.7559 0.439
75.7664 0.368
75.7769 0.460
75.7874 0.388
75.7980 0.470
75.8085 0.408
75.8190 0.378
75.8295 0.419
75.8400 0.347
75.8506 0.480
75.8611 0.388
75.8716 0.347
75.8821 0.296
75.8927 0.357
75.9032 0.306
75.9137 0.368
75.9242 0.296
75.9348 0.398
75.9453 0.408
75.9558 0.378
75.9663 0.327
75.9768 0.429
75.9874 0.347
75.9979 0.357
76.0084 0.286
76.0189 0.266
76.0295 0.214
76.0400 0.337
76.0505 0.276
76.0610 0.429
76.0715 0.408
76.0821 0.317
76.0926 0.266
76.1031 0.317
76.1136 0.460
76.1242 0.296
76.1347 0.337
76.1452 0.480
76.1557 0.306
76.1663 0.368
76.1768 0.306
76.1873 0.347
76.1978 0.439
76.2083 0.439
76.2189 0.266
76.2294 0.357
76.2399 0.255
76.2504 0.266
76.2610 0.276
76.2715 0.286
76.2820 0.306
76.2925 0.378
76.3030 0.306
76.3136 0.184
76.3241 0.306
76.3346 0.317
76.3451 0.276
76.3557 0.245
76.3662 0.204
76.3767 0.266
76.3872 0.368
76.3977 0.214
76.4083 0.204
76.4188 0.266
76.4293 0.245
76.4398 0.194
76.4504 0.245
76.4609 0.092
76.4714 0.245
76.4819 0.255
76.4925 0.163
76.5030 0.174
76.5135 0.163
76.5240 0.194
76.5345 0.204
76.5451 0.112
76.5556 0.184
76.5661 0.153
76.5766 0.255
76.5872 0.153
76.5977 0.174
76.6082 0.194
76.6187 0.204
76.6292 0.214
76.6398 0.153
76.6503 0.194
76.6608 0.133
76.6713 0.174
76.6819 0.184
76.6924 0.163
76.7029 0.184
76.7134 0.184
76.7240 0.143
76.7345 0.194
76.7450 0.153
76.7555 0.184
76.7660 0.102
76.7766 0.153
76.7871 0.225
76.7976 0.174
76.8081 0.163
76.8187 0.153
76.8292 0.163
76.8397 0.174
76.8502 0.194
76.8607 0.143
76.8713 0.133
76.8818 0.204
76.8923 0.153
76.9028 0.143
76.9134 0.133
76.9239 0.153
76.9344 0.143
76.9449 0.184
76.9554 0.143
76.9660 0.112
76.9765 0.112
76.9870 0.204
76.9975 0.153
77.0081 0.184
77.0186 0.133
77.0291 0.133
77.0396 0.174
77.0502 0.153
77.0607 0.184
77.0712 0.174
77.0817 0.214
77.0922 0.143
77.1028 0.235
77.1133 0.133
77.1238 0.306
77.1343 0.204
77.1449 0.214
77.1554 0.174
77.1659 0.214
77.1764 0.276
77.1869 0.255
77.1975 0.214
77.2080 0.214
77.2185 0.184
77.2290 0.286
77.2396 0.266
77.2501 0.163
77.2606 0.153
77.2711 0.235
77.2816 0.317
77.2922 0.266
77.3027 0.225
77.3132 0.184
77.3237 0.255
77.3343 0.255
77.3448 0.225
77.3553 0.306
77.3658 0.296
77.3764 0.194
77.3869 0.214
77.3974 0.296
77.4079 0.235
77.4184 0.347
77.4290 0.317
77.4395 0.337
77.4500 0.357
77.4605 0.276
77.4711 0.347
77.4816 0.317
77.4921 0.296
77.5026 0.408
77.5131 0.266
77.5237 0.378
77.5342 0.378
77.5447 0.357
77.5552 0.347
77.5658 0.470
77.5763 0.337
77.5868 0.419
77.5973 0.603
77.6079 0.398
77.6184 0.490
77.6289 0.511
77.6394 0.603
77.6499 0.460
77.6605 0.521
77.6710 0.521
77.6815 0.490
77.6920 0.654
77.7026 0.521
77.7131 0.603
77.7236 0.582
77.7341 0.613
77.7446 0.603
77.7552 0.715
77.7657 0.715
77.7762 0.674
77.7867 0.827
77.7973 0.807
77.8078 0.592
77.8183 0.786
77.8288 0.582
77.8393 0.674
77.8499 0.705
77.8604 0.868
77.8709 0.746
77.8814 0.623
77.8920 0.766
77.9025 0.756
77.9130 0.725
77.9235 0.725
77.9341 0.837
77.9446 0.694
77.9551 0.674
77.9656 0.827
77.9761 0.715
77.9867 0.715
77.9972 0.827
78.0077 0.654
78.0182 0.817
78.0288 0.725
78.0393 0.572
78.0498 0.633
78.0603 0.664
78.0708 0.643
78.0814 0.592
78.0919 0.521
78.1024 0.643
78.1129 0.603
78.1235 0.654
78.1340 0.500
78.1445 0.500
78.1550 0.439
78.1655 0.429
78.1761 0.398
78.1866 0.449
78.1971 0.408
78.2076 0.368
78.2182 0.398
78.2287 0.449
78.2392 0.255
78.2497 0.337
78.2603 0.357
78.2708 0.398
78.2813 0.378
78.2918 0.306
78.3023 0.378
78.3129 0.255
78.3234 0.245
78.3339 0.266
78.3444 0.245
78.3550 0.337
78.3655 0.276
78.3760 0.235
78.3865 0.276
78.3970 0.225
78.4076 0.276
78.4181 0.214
78.4286 0.184
78.4391 0.286
78.4497 0.235
78.4602 0.235
78.4707 0.204
78.4812 0.266
78.4918 0.204
78.5023 0.184
78.5128 0.225
78.5233 0.214
78.5338 0.123
78.5444 0.153
78.5549 0.143
78.5654 0.184
78.5759 0.266
78.5865 0.266
78.5970 0.123
78.6075 0.163
78.6180 0.214
78.6285 0.153
78.6391 0.133
78.6496 0.184
78.6601 0.143
78.6706 0.143
78.6812 0.194
78.6917 0.194
78.7022 0.184
78.7127 0.204
78.7232 0.184
78.7338 0.112
78.7443 0.174
78.7548 0.225
78.7653 0.163
78.7759 0.133
78.7864 0.143
78.7969 0.153
78.8074 0.112
78.8180 0.112
78.8285 0.204
78.8390 0.092
78.8495 0.123
78.8600 0.163
78.8706 0.153
78.8811 0.184
78.8916 0.153
78.9021 0.143
78.9127 0.174
78.9232 0.112
78.9337 0.174
78.9442 0.163
78.9547 0.194
78.9653 0.133
78.9758 0.153
78.9863 0.133
78.9968 0.123
79.0074 0.153
79.0179 0.082
79.0284 0.112
79.0389 0.174
79.0494 0.174
79.0600 0.143
79.0705 0.143
79.0810 0.153
79.0915 0.245
79.1021 0.123
79.1126 0.102
79.1231 0.204
79.1336 0.214
79.1442 0.143
79.1547 0.163
79.1652 0.143
79.1757 0.143
79.1862 0.092
79.1968 0.174
79.2073 0.184
79.2178 0.163
79.2283 0.133
79.2389 0.143
79.2494 0.092
79.2599 0.214
79.2704 0.133
79.2809 0.133
79.2915 0.102
79.3020 0.092
79.3125 0.266
79.3230 0.163
79.3336 0.184
79.3441 0.133
79.3546 0.133
79.3651 0.143
79.3757 0.123
79.3862 0.123
79.3967 0.153
79.4072 0.133
79.4177 0.123
79.4283 0.102
79.4388 0.225
79.4493 0.153
79.4598 0.133
79.4704 0.143
79.4809 0.163
79.4914 0.123
79.5019 0.174
79.5124 0.214
79.5230 0.143
79.5335 0.112
79.5440 0.163
79.5545 0.174
79.5651 0.184
79.5756 0.123
79.5861 0.092
79.5966 0.163
79.6071 0.163
79.6177 0.153
79.6282 0.163
79.6387 0.112
79.6492 0.112
79.6598 0.163
79.6703 0.153
79.6808 0.123
79.6913 0.112
79.7019 0.133
79.7124 0.153
79.7229 0.204
79.7334 0.133
79.7439 0.143
79.7545 0.143
79.7650 0.214
79.7755 0.153
79.7860 0.051
79.7966 0.225
79.8071 0.163
79.8176 0.194
79.8281 0.194
79.8386 0.174
79.8492 0.235
79.8597 0.123
79.8702 0.153
79.8807 0.204
79.8913 0.194
79.9018 0.204
79.9123 0.204
79.9228 0.225
79.9333 0.204
79.9439 0.245
79.9544 0.225
79.9649 0.163
79.9754 0.235
79.9860 0.184
79.9965 0.214
80.0070 0.184
