10.0000 0.919
10.0105 1.072
10.0210 0.929
10.0316 0.858
10.0421 0.848
10.0526 0.929
10.0631 0.929
10.0737 0.899
10.0842 0.878
10.0947 1.021
10.1052 0.899
10.1157 0.929
10.1263 0.868
10.1368 0.837
10.1473 0.878
10.1578 0.950
10.1684 0.776
10.1789 0.878
10.1894 0.797
10.1999 0.786
10.2105 0.837
10.2210 0.888
10.2315 0.725
10.2420 0.950
10.2525 0.725
10.2631 0.848
10.2736 1.021
10.2841 0.909
10.2946 1.062
10.3052 0.888
10.3157 0.827
10.3262 0.970
10.3367 0.827
10.3472 1.031
10.3578 1.011
10.3683 0.929
10.3788 0.684
10.3893 1.021
10.3999 0.715
10.4104 0.950
10.4209 1.144
10.4314 1.011
10.4420 0.878
10.4525 1.123
10.4630 0.868
10.4735 0.919
10.4840 0.899
10.4946 1.011
10.5051 0.766
10.5156 0.909
10.5261 0.776
10.5367 0.940
10.5472 0.776
10.5577 0.827
10.5682 0.868
10.5787 0.837
10.5893 0.858
10.5998 0.848
10.6103 0.837
10.6208 0.991
10.6314 0.929
10.6419 1.031
10.6524 0.786
10.6629 0.929
10.6734 0.929
10.6840 0.950
10.6945 0.888
10.7050 0.980
10.7155 0.858
10.7261 1.103
10.7366 0.776
10.7471 0.786
10.7576 0.705
10.7682 0.797
10.7787 0.776
10.7892 0.827
10.7997 0.797
10.8102 1.001
10.8208 0.970
10.8313 0.909
10.8418 0.705
10.8523 1.062
10.8629 0.970
10.8734 0.868
10.8839 0.786
10.8944 0.868
10.9049 0.909
10.9155 0.919
10.9260 0.827
10.9365 0.919
10.9470 0.725
10.9576 0.766
10.9681 0.858
10.9786 1.001
10.9891 0.878
10.9996 0.807
11.0102 0.868
11.0207 1.001
11.0312 0.807
11.0417 0.746
11.0523 0.837
11.0628 0.674
11.0733 0.848
11.0838 0.858
11.0944 0.899
11.1049 0.674
11.1154 0.827
11.1259 0.837
11.1364 0.929
11.1470 0.797
11.1575 0.848
11.1680 0.705
11.1785 0.960
11.1891 0.715
11.1996 1.042
11.2101 0.572
11.2206 0.858
11.2311 0.776
11.2417 0.817
11.2522 0.694
11.2627 0.715
11.2732 0.817
11.2838 0.817
11.2943 0.705
11.3048 0.603
11.3153 0.878
11.3259 0.868
11.3364 0.837
11.3469 0.797
11.3574 0.797
11.3679 0.899
11.3785 0.766
11.3890 0.735
11.3995 0.837
11.4100 0.746
11.4206 0.715
11.4311 0.786
11.4416 0.888
11.4521 0.746
11.4626 0.633
11.4732 0.746
11.4837 0.888
11.4942 0.500
11.5047 0.858
11.5153 0.725
11.5258 0.797
11.5363 0.756
11.5468 0.776
11.5573 0.633
11.5679 0.746
11.5784 0.613
11.5889 0.960
11.5994 0.909
11.6100 0.746
11.6205 0.756
11.6310 0.684
11.6415 0.654
11.6521 0.746
11.6626 0.715
11.6731 0.766
11.6836 0.684
11.6941 0.715
11.7047 0.756
11.7152 0.797
11.7257 0.715
11.7362 0.643
11.7468 0.797
11.7573 0.735
11.7678 0.776
11.7783 0.817
11.7888 0.817
11.7994 0.797
11.8099 0.868
11.8204 0.746
11.8309 0.684
11.8415 0.786
11.8520 0.756
11.8625 0.807
11.8730 0.674
11.8835 0.817
11.8941 0.878
11.9046 0.643
11.9151 0.776
11.9256 0.807
11.9362 0.674
11.9467 0.817
11.9572 0.623
11.9677 0.725
11.9783 0.827
11.9888 0.694
11.9993 0.705
12.0098 0.756
12.0203 0.848
12.0309 0.674
12.0414 0.746
12.0519 0.868
12.0624 0.694
12.0730 0.705
12.0835 0.705
12.0940 0.776
12.1045 0.756
12.1150 0.643
12.1256 0.940
12.1361 0.735
12.1466 0.735
12.1571 0.674
12.1677 0.735
12.1782 0.766
12.1887 0.643
12.1992 0.592
12.2098 0.776
12.2203 0.807
12.2308 0.705
12.2413 0.694
12.2518 0.888
12.2624 0.797
12.2729 0.715
12.2834 0.888
12.2939 0.664
12.3045 0.735
12.3150 0.664
12.3255 0.929
12.3360 0.694
12.3465 0.725
12.3571 0.756
12.3676 0.684
12.3781 0.807
12.3886 0.654
12.3992 0.684
12.4097 0.572
12.4202 0.664
12.4307 0.664
12.4412 0.888
12.4518 0.705
12.4623 0.735
12.4728 0.664
12.4833 0.715
12.4939 0.623
12.5044 0.603
12.5149 0.623
12.5254 0.674
12.5360 0.633
12.5465 0.950
12.5570 0.705
12.5675 0.654
12.5780 0.674
12.5886 0.480
12.5991 0.664
12.6096 0.715
12.6201 0.562
12.6307 0.613
12.6412 0.776
12.6517 0.776
12.6622 0.623
12.6727 0.684
12.6833 0.582
12.6938 0.827
12.7043 0.848
12.7148 0.807
12.7254 0.633
12.7359 0.357
12.7464 0.603
12.7569 0.572
12.7674 0.725
12.7780 0.572
12.7885 0.725
12.7990 0.694
12.8095 0.694
12.8201 0.541
12.8306 0.551
12.8411 0.817
12.8516 0.746
12.8622 0.684
12.8727 0.664
12.8832 0.582
12.8937 0.603
12.9042 0.500
12.9148 0.725
12.9253 0.817
12.9358 0.725
12.9463 0.786
12.9569 0.786
12.9674 0.531
12.9779 0.715
12.9884 0.603
12.9989 0.684
13.0095 0.582
13.0200 0.592
13.0305 0.603
13.0410 0.715
13.0516 0.694
13.0621 0.766
13.0726 0.643
13.0831 0.592
13.0937 0.827
13.1042 0.613
13.1147 0.664
13.1252 0.674
13.1357 0.582
13.1463 0.715
13.1568 0.643
13.1673 0.654
13.1778 0.603
13.1884 0.603
13.1989 0.633
13.2094 0.786
13.2199 0.766
13.2304 0.674
13.2410 0.694
13.2515 0.562
13.2620 0.664
13.2725 0.643
13.2831 0.531
13.2936 0.562
13.3041 0.694
13.3146 0.664
13.3251 0.664
13.3357 0.786
13.3462 0.521
13.3567 0.715
13.3672 0.633
13.3778 0.817
13.3883 0.572
13.3988 0.664
13.4093 0.572
13.4199 0.582
13.4304 0.613
13.4409 0.797
13.4514 0.551
13.4619 0.766
13.4725 0.664
13.4830 0.613
13.4935 0.674
13.5040 0.735
13.5146 0.572
13.5251 0.572
13.5356 0.654
13.5461 0.756
13.5566 0.746
13.5672 0.460
13.5777 0.541
13.5882 0.623
13.5987 0.715
13.6093 0.470
13.6198 0.531
13.6303 0.766
13.6408 0.643
13.6514 0.694
13.6619 0.694
13.6724 0.511
13.6829 0.705
13.6934 0.592
13.7040 0.541
13.7145 0.735
13.7250 0.725
13.7355 0.541
13.7461 0.592
13.7566 0.572
13.7671 0.551
13.7776 0.531
13.7881 0.592
13.7987 0.521
13.8092 0.551
13.8197 0.572
13.8302 0.633
13.8408 0.725
13.8513 0.684
13.8618 0.592
13.8723 0.654
13.8828 0.613
13.8934 0.715
13.9039 0.643
13.9144 0.500
13.9249 0.633
13.9355 0.582
13.9460 0.449
13.9565 0.521
13.9670 0.674
13.9776 0.705
13.9881 0.572
13.9986 0.674
14.0091 0.531
14.0196 0.705
14.0302 0.613
14.0407 0.613
14.0512 0.470
14.0617 0.592
14.0723 0.521
14.0828 0.715
14.0933 0.603
14.1038 0.541
14.1143 0.664
14.1249 0.603
14.1354 0.490
14.1459 0.603
14.1564 0.582
14.1670 0.572
14.1775 0.572
14.1880 0.705
14.1985 0.705
14.2090 0.541
14.2196 0.694
14.2301 0.521
14.2406 0.664
14.2511 0.541
14.2617 0.480
14.2722 0.654
14.2827 0.664
14.2932 0.521
14.3038 0.654
14.3143 0.643
14.3248 0.490
14.3353 0.572
14.3458 0.562
14.3564 0.511
14.3669 0.664
14.3774 0.674
14.3879 0.541
14.3985 0.562
14.4090 0.623
14.4195 0.562
14.4300 0.592
14.4405 0.562
14.4511 0.643
14.4616 0.541
14.4721 0.603
14.4826 0.684
14.4932 0.551
14.5037 0.623
14.5142 0.582
14.5247 0.643
14.5353 0.500
14.5458 0.541
14.5563 0.603
14.5668 0.511
14.5773 0.643
14.5879 0.521
14.5984 0.603
14.6089 0.500
14.6194 0.521
14.6300 0.746
14.6405 0.500
14.6510 0.480
14.6615 0.715
14.6720 0.623
14.6826 0.500
14.6931 0.551
14.7036 0.623
14.7141 0.490
14.7247 0.592
14.7352 0.551
14.7457 0.562
14.7562 0.664
14.7667 0.582
14.7773 0.551
14.7878 0.633
14.7983 0.603
14.8088 0.572
14.8194 0.531
14.8299 0.460
14.8404 0.684
14.8509 0.623
14.8615 0.613
14.8720 0.582
14.8825 0.490
14.8930 0.654
14.9035 0.541
14.9141 0.623
14.9246 0.633
14.9351 0.531
14.9456 0.500
14.9562 0.633
14.9667 0.521
14.9772 0.623
14.9877 0.715
14.9982 0.511
15.0088 0.592
15.0193 0.623
15.0298 0.654
15.0403 0.603
15.0509 0.735
15.0614 0.572
15.0719 0.500
15.0824 0.531
15.0929 0.429
15.1035 0.500
15.1140 0.521
15.1245 0.603
15.1350 0.715
15.1456 0.531
15.1561 0.572
15.1666 0.511
15.1771 0.480
15.1877 0.500
15.1982 0.582
15.2087 0.633
15.2192 0.521
15.2297 0.541
15.2403 0.551
15.2508 0.449
15.2613 0.511
15.2718 0.633
15.2824 0.562
15.2929 0.449
15.3034 0.470
15.3139 0.562
15.3244 0.572
15.3350 0.541
15.3455 0.623
15.3560 0.684
15.3665 0.674
15.3771 0.531
15.3876 0.470
15.3981 0.541
15.4086 0.551
15.4192 0.603
15.4297 0.327
15.4402 0.490
15.4507 0.582
15.4612 0.500
15.4718 0.347
15.4823 0.439
15.4928 0.470
15.5033 0.684
15.5139 0.582
15.5244 0.592
15.5349 0.654
15.5454 0.460
15.5559 0.705
15.5665 0.470
15.5770 0.623
15.5875 0.449
15.5980 0.643
15.6086 0.592
15.6191 0.490
15.6296 0.470
15.6401 0.623
15.6506 0.551
15.6612 0.408
15.6717 0.521
15.6822 0.654
15.6927 0.521
15.7033 0.551
15.7138 0.490
15.7243 0.439
15.7348 0.470
15.7454 0.480
15.7559 0.470
15.7664 0.551
15.7769 0.541
15.7874 0.470
15.7980 0.490
15.8085 0.470
15.8190 0.521
15.8295 0.531
15.8401 0.500
15.8506 0.541
15.8611 0.551
15.8716 0.480
15.8821 0.480
15.8927 0.664
15.9032 0.521
15.9137 0.613
15.9242 0.460
15.9348 0.541
15.9453 0.490
15.9558 0.500
15.9663 0.582
15.9768 0.490
15.9874 0.449
15.9979 0.490
16.0084 0.562
16.0189 0.480
16.0295 0.613
16.0400 0.551
16.0505 0.449
16.0610 0.643
16.0716 0.500
16.0821 0.562
16.0926 0.572
16.1031 0.582
16.1136 0.603
16.1242 0.460
16.1347 0.572
16.1452 0.623
16.1557 0.592
16.1663 0.582
16.1768 0.490
16.1873 0.582
16.1978 0.480
16.2083 0.541
16.2189 0.541
16.2294 0.603
16.2399 0.592
16.2504 0.460
16.2610 0.490
16.2715 0.398
16.2820 0.551
16.2925 0.531
16.3031 0.429
16.3136 0.582
16.3241 0.633
16.3346 0.490
16.3451 0.541
16.3557 0.511
16.3662 0.480
16.3767 0.419
16.3872 0.531
16.3978 0.623
16.4083 0.449
16.4188 0.511
16.4293 0.572
16.4398 0.613
16.4504 0.470
16.4609 0.357
16.4714 0.541
16.4819 0.572
16.4925 0.500
16.5030 0.500
16.5135 0.582
16.5240 0.521
16.5345 0.592
16.5451 0.449
16.5556 0.511
16.5661 0.623
16.5766 0.603
16.5872 0.643
16.5977 0.592
16.6082 0.705
16.6187 0.572
16.6293 0.378
16.6398 0.551
16.6503 0.623
16.6608 0.480
16.6713 0.592
16.6819 0.511
16.6924 0.511
16.7029 0.327
16.7134 0.613
16.7240 0.500
16.7345 0.572
16.7450 0.541
16.7555 0.490
16.7660 0.633
16.7766 0.551
16.7871 0.654
16.7976 0.735
16.8081 0.633
16.8187 0.470
16.8292 0.480
16.8397 0.613
16.8502 0.541
16.8607 0.643
16.8713 0.511
16.8818 0.623
16.8923 0.572
16.9028 0.623
16.9134 0.705
16.9239 0.694
16.9344 0.705
16.9449 0.674
16.9555 0.797
16.9660 0.817
16.9765 0.735
16.9870 0.960
16.9975 0.878
17.0081 1.021
17.0186 1.144
17.0291 1.011
17.0396 1.093
17.0502 1.368
17.0607 1.563
17.0712 2.114
17.0817 1.961
17.0922 2.635
17.1028 2.951
17.1133 3.299
17.1238 3.779
17.1343 4.034
17.1449 4.851
17.1554 5.351
17.1659 5.964
17.1764 6.516
17.1870 6.822
17.1975 7.312
17.2080 7.404
17.2185 7.455
17.2290 7.322
17.2396 6.577
17.2501 6.168
17.2606 5.464
17.2711 4.473
17.2817 4.126
17.2922 3.779
17.3027 3.268
17.3132 2.911
17.3237 2.308
17.3343 1.910
17.3448 1.501
17.3553 1.389
17.3658 1.450
17.3764 1.205
17.3869 1.011
17.3974 0.940
17.4079 0.909
17.4184 0.858
17.4290 0.786
17.4395 0.592
17.4500 0.776
17.4605 0.807
17.4711 0.756
17.4816 0.746
17.4921 0.643
17.5026 0.674
17.5132 0.531
17.5237 0.562
17.5342 0.674
17.5447 0.521
17.5552 0.725
17.5658 0.654
17.5763 0.408
17.5868 0.521
17.5973 0.429
17.6079 0.500
17.6184 0.562
17.6289 0.480
17.6394 0.511
17.6499 0.500
17.6605 0.500
17.6710 0.531
17.6815 0.562
17.6920 0.562
17.7026 0.439
17.7131 0.531
17.7236 0.572
17.7341 0.419
17.7447 0.541
17.7552 0.643
17.7657 0.521
17.7762 0.500
17.7867 0.582
17.7973 0.633
17.8078 0.439
17.8183 0.449
17.8288 0.378
17.8394 0.470
17.8499 0.551
17.8604 0.449
17.8709 0.511
17.8814 0.429
17.8920 0.633
17.9025 0.541
17.9130 0.480
17.9235 0.592
17.9341 0.541
17.9446 0.408
17.9551 0.337
17.9656 0.470
17.9761 0.388
17.9867 0.592
17.9972 0.398
18.0077 0.480
18.0182 0.531
18.0288 0.500
18.0393 0.378
18.0498 0.480
18.0603 0.500
18.0709 0.623
18.0814 0.531
18.0919 0.460
18.1024 0.460
18.1129 0.490
18.1235 0.337
18.1340 0.551
18.1445 0.408
18.1550 0.378
18.1656 0.562
18.1761 0.562
18.1866 0.419
18.1971 0.470
18.2076 0.388
18.2182 0.521
18.2287 0.378
18.2392 0.490
18.2497 0.480
18.2603 0.603
18.2708 0.429
18.2813 0.541
18.2918 0.521
18.3023 0.460
18.3129 0.449
18.3234 0.429
18.3339 0.347
18.3444 0.327
18.3550 0.398
18.3655 0.408
18.3760 0.460
18.3865 0.511
18.3971 0.490
18.4076 0.449
18.4181 0.306
18.4286 0.398
18.4391 0.398
18.4497 0.378
18.4602 0.286
18.4707 0.378
18.4812 0.317
18.4918 0.419
18.5023 0.511
18.5128 0.357
18.5233 0.378
18.5338 0.470
18.5444 0.378
18.5549 0.460
18.5654 0.408
18.5759 0.449
18.5865 0.388
18.5970 0.490
18.6075 0.398
18.6180 0.490
18.6286 0.460
18.6391 0.572
18.6496 0.572
18.6601 0.378
18.6706 0.408
18.6812 0.408
18.6917 0.449
18.7022 0.511
18.7127 0.327
18.7233 0.511
18.7338 0.470
18.7443 0.357
18.7548 0.368
18.7653 0.470
18.7759 0.419
18.7864 0.500
18.7969 0.531
18.8074 0.317
18.8180 0.357
18.8285 0.480
18.8390 0.408
18.8495 0.398
18.8600 0.439
18.8706 0.449
18.8811 0.521
18.8916 0.419
18.9021 0.388
18.9127 0.480
18.9232 0.439
18.9337 0.500
18.9442 0.460
18.9548 0.521
18.9653 0.337
18.9758 0.541
18.9863 0.419
18.9968 0.439
19.0074 0.327
19.0179 0.490
19.0284 0.347
19.0389 0.388
19.0495 0.582
19.0600 0.490
19.0705 0.408
19.0810 0.500
19.0915 0.398
19.1021 0.460
19.1126 0.408
19.1231 0.449
19.1336 0.439
19.1442 0.439
19.1547 0.419
19.1652 0.470
19.1757 0.429
19.1862 0.531
19.1968 0.429
19.2073 0.572
19.2178 0.357
19.2283 0.398
19.2389 0.429
19.2494 0.388
19.2599 0.541
19.2704 0.378
19.2810 0.368
19.2915 0.327
19.3020 0.327
19.3125 0.429
19.3230 0.449
19.3336 0.388
19.3441 0.357
19.3546 0.286
19.3651 0.419
19.3757 0.521
19.3862 0.531
19.3967 0.531
19.4072 0.398
19.4177 0.388
19.4283 0.357
19.4388 0.337
19.4493 0.429
19.4598 0.419
19.4704 0.449
19.4809 0.347
19.4914 0.368
19.5019 0.470
19.5125 0.398
19.5230 0.378
19.5335 0.521
19.5440 0.439
19.5545 0.368
19.5651 0.398
19.5756 0.398
19.5861 0.408
19.5966 0.419
19.6072 0.511
19.6177 0.388
19.6282 0.521
19.6387 0.521
19.6492 0.357
19.6598 0.368
19.6703 0.480
19.6808 0.511
19.6913 0.613
19.7019 0.500
19.7124 0.490
19.7229 0.398
19.7334 0.419
19.7439 0.317
19.7545 0.592
19.7650 0.419
19.7755 0.398
19.7860 0.368
19.7966 0.449
19.8071 0.480
19.8176 0.521
19.8281 0.531
19.8387 0.460
19.8492 0.521
19.8597 0.429
19.8702 0.480
19.8807 0.531
19.8913 0.357
19.9018 0.551
19.9123 0.521
19.9228 0.562
19.9334 0.306
19.9439 0.460
19.9544 0.480
19.9649 0.388
19.9754 0.388
19.9860 0.460
19.9965 0.480
20.0070 0.419
20.0175 0.449
20.0281 0.511
20.0386 0.337
20.0491 0.408
20.0596 0.480
20.0701 0.551
20.0807 0.562
20.0912 0.419
20.1017 0.388
20.1122 0.511
20.1228 0.490
20.1333 0.490
20.1438 0.429
20.1543 0.429
20.1649 0.511
20.1754 0.439
20.1859 0.419
20.1964 0.378
20.2069 0.490
20.2175 0.388
20.2280 0.521
20.2385 0.500
20.2490 0.408
20.2596 0.439
20.2701 0.480
20.2806 0.470
20.2911 0.470
20.3016 0.357
20.3122 0.541
20.3227 0.551
20.3332 0.541
20.3437 0.531
20.3543 0.582
20.3648 0.500
20.3753 0.603
20.3858 0.572
20.3964 0.603
20.4069 0.623
20.4174 0.521
20.4279 0.541
20.4384 0.603
20.4490 0.613
20.4595 0.429
20.4700 0.551
20.4805 0.562
20.4911 0.572
20.5016 0.603
20.5121 0.643
20.5226 0.868
20.5331 0.786
20.5437 0.817
20.5542 0.827
20.5647 0.950
20.5752 1.001
20.5858 1.174
20.5963 1.205
20.6068 1.154
20.6173 1.420
20.6278 1.675
20.6384 1.859
20.6489 1.910
20.6594 2.614
20.6699 2.451
20.6805 3.105
20.6910 3.380
20.7015 4.636
20.7120 5.127
20.7226 5.596
20.7331 6.536
20.7436 8.364
20.7541 8.813
20.7646 9.814
20.7752 11.336
20.7857 11.581
20.7962 13.123
20.8067 12.949
20.8173 13.000
20.8278 12.786
20.8383 11.765
20.8488 10.192
20.8593 9.079
20.8699 8.027
20.8804 6.740
20.8909 5.974
20.9014 5.188
20.9120 4.606
20.9225 3.493
20.9330 3.135
20.9435 3.054
20.9541 2.410
20.9646 2.114
20.9751 1.797
20.9856 1.808
20.9961 1.563
21.0067 1.358
21.0172 1.573
21.0277 1.021
21.0382 1.123
21.0488 1.083
21.0593 0.807
21.0698 1.011
21.0803 0.827
21.0908 0.848
21.1014 0.899
21.1119 0.766
21.1224 0.643
21.1329 0.562
21.1435 0.654
21.1540 0.582
21.1645 0.531
21.1750 0.654
21.1855 0.633
21.1961 0.541
21.2066 0.511
21.2171 0.592
21.2276 0.511
21.2382 0.490
21.2487 0.449
21.2592 0.429
21.2697 0.511
21.2803 0.439
21.2908 0.470
21.3013 0.480
21.3118 0.623
21.3223 0.429
21.3329 0.582
21.3434 0.388
21.3539 0.449
21.3644 0.398
21.3750 0.460
21.3855 0.623
21.3960 0.419
21.4065 0.429
21.4170 0.347
21.4276 0.347
21.4381 0.541
21.4486 0.470
21.4591 0.337
21.4697 0.378
21.4802 0.408
21.4907 0.480
21.5012 0.500
21.5117 0.357
21.5223 0.368
21.5328 0.480
21.5433 0.419
21.5538 0.439
21.5644 0.357
21.5749 0.378
21.5854 0.388
21.5959 0.490
21.6065 0.357
21.6170 0.317
21.6275 0.429
21.6380 0.470
21.6485 0.368
21.6591 0.408
21.6696 0.235
21.6801 0.347
21.6906 0.368
21.7012 0.439
21.7117 0.541
21.7222 0.347
21.7327 0.429
21.7432 0.419
21.7538 0.276
21.7643 0.398
21.7748 0.276
21.7853 0.398
21.7959 0.429
21.8064 0.388
21.8169 0.388
21.8274 0.419
21.8380 0.388
21.8485 0.521
21.8590 0.449
21.8695 0.398
21.8800 0.439
21.8906 0.368
21.9011 0.398
21.9116 0.419
21.9221 0.419
21.9327 0.388
21.9432 0.347
21.9537 0.388
21.9642 0.398
21.9747 0.490
21.9853 0.480
21.9958 0.419
22.0063 0.378
22.0168 0.500
22.0274 0.378
22.0379 0.449
22.0484 0.408
22.0589 0.439
22.0694 0.296
22.0800 0.388
22.0905 0.306
22.1010 0.470
22.1115 0.439
22.1221 0.449
22.1326 0.419
22.1431 0.337
22.1536 0.439
22.1642 0.327
22.1747 0.357
22.1852 0.368
22.1957 0.368
22.2062 0.357
22.2168 0.480
22.2273 0.327
22.2378 0.449
22.2483 0.603
22.2589 0.490
22.2694 0.419
22.2799 0.388
22.2904 0.439
22.3009 0.439
22.3115 0.470
22.3220 0.429
22.3325 0.449
22.3430 0.398
22.3536 0.357
22.3641 0.449
22.3746 0.388
22.3851 0.439
22.3956 0.419
22.4062 0.572
22.4167 0.531
22.4272 0.490
22.4377 0.582
22.4483 0.592
22.4588 0.500
22.4693 0.592
22.4798 0.613
22.4904 0.654
22.5009 0.664
22.5114 0.684
22.5219 0.562
22.5324 0.633
22.5430 0.756
22.5535 0.848
22.5640 0.919
22.5745 1.031
22.5851 0.929
22.5956 1.093
22.6061 1.123
22.6166 1.430
22.6271 1.491
22.6377 1.726
22.6482 1.900
22.6587 2.175
22.6692 2.114
22.6798 2.931
22.6903 3.309
22.7008 3.156
22.7113 3.278
22.7219 4.105
22.7324 4.208
22.7429 4.218
22.7534 4.432
22.7639 4.126
22.7745 4.647
22.7850 4.718
22.7955 3.932
22.8060 4.116
22.8166 3.799
22.8271 3.299
22.8376 3.421
22.8481 2.420
22.8586 2.574
22.8692 2.400
22.8797 1.828
22.8902 1.900
22.9007 1.665
22.9113 1.236
22.9218 1.174
22.9323 0.991
22.9428 1.164
22.9533 0.858
22.9639 0.735
22.9744 0.837
22.9849 0.643
22.9954 0.582
23.0060 0.684
23.0165 0.408
23.0270 0.694
23.0375 0.531
23.0481 0.582
23.0586 0.490
23.0691 0.592
23.0796 0.480
23.0901 0.541
23.1007 0.500
23.1112 0.480
23.1217 0.419
23.1322 0.439
23.1428 0.541
23.1533 0.439
23.1638 0.419
23.1743 0.521
23.1848 0.408
23.1954 0.531
23.2059 0.408
23.2164 0.490
23.2269 0.419
23.2375 0.521
23.2480 0.429
23.2585 0.357
23.2690 0.337
23.2795 0.398
23.2901 0.500
23.3006 0.419
23.3111 0.419
23.3216 0.419
23.3322 0.541
23.3427 0.480
23.3532 0.368
23.3637 0.408
23.3743 0.490
23.3848 0.408
23.3953 0.378
23.4058 0.388
23.4163 0.470
23.4269 0.388
23.4374 0.398
23.4479 0.357
23.4584 0.449
23.4690 0.347
23.4795 0.419
23.4900 0.490
23.5005 0.327
23.5110 0.470
23.5216 0.368
23.5321 0.460
23.5426 0.378
23.5531 0.429
23.5637 0.490
23.5742 0.419
23.5847 0.266
23.5952 0.378
23.6058 0.408
23.6163 0.306
23.6268 0.408
23.6373 0.388
23.6478 0.347
23.6584 0.439
23.6689 0.266
23.6794 0.460
23.6899 0.378
23.7005 0.255
23.7110 0.429
23.7215 0.368
23.7320 0.449
23.7425 0.613
23.7531 0.398
23.7636 0.398
23.7741 0.357
23.7846 0.368
23.7952 0.337
23.8057 0.398
23.8162 0.439
23.8267 0.398
23.8372 0.480
23.8478 0.480
23.8583 0.480
23.8688 0.562
23.8793 0.500
23.8899 0.490
23.9004 0.521
23.9109 0.480
23.9214 0.429
23.9320 0.725
23.9425 0.756
23.9530 0.592
23.9635 0.694
23.9740 0.807
23.9846 0.960
23.9951 0.960
24.0056 0.878
24.0161 0.991
24.0267 1.134
24.0372 1.430
24.0477 1.399
24.0582 1.736
24.0687 1.767
24.0793 1.767
24.0898 1.501
24.1003 1.746
24.1108 1.981
24.1214 1.828
24.1319 1.685
24.1424 1.695
24.1529 1.695
24.1635 1.481
24.1740 1.389
24.1845 1.052
24.1950 1.205
24.2055 1.134
24.2161 0.991
24.2266 0.735
24.2371 0.858
24.2476 0.868
24.2582 0.715
24.2687 0.694
24.2792 0.470
24.2897 0.613
24.3002 0.429
24.3108 0.480
24.3213 0.521
24.3318 0.449
24.3423 0.460
24.3529 0.398
24.3634 0.460
24.3739 0.500
24.3844 0.408
24.3949 0.398
24.4055 0.470
24.4160 0.388
24.4265 0.388
24.4370 0.541
24.4476 0.408
24.4581 0.388
24.4686 0.408
24.4791 0.429
24.4897 0.582
24.5002 0.449
24.5107 0.490
24.5212 0.317
24.5317 0.296
24.5423 0.378
24.5528 0.480
24.5633 0.357
24.5738 0.357
24.5844 0.306
24.5949 0.460
24.6054 0.460
24.6159 0.460
24.6264 0.378
24.6370 0.429
24.6475 0.470
24.6580 0.378
24.6685 0.327
24.6791 0.368
24.6896 0.470
24.7001 0.357
24.7106 0.368
24.7211 0.388
24.7317 0.276
24.7422 0.378
24.7527 0.490
24.7632 0.521
24.7738 0.357
24.7843 0.317
24.7948 0.480
24.8053 0.521
24.8159 0.419
24.8264 0.408
24.8369 0.480
24.8474 0.449
24.8579 0.357
24.8685 0.572
24.8790 0.357
24.8895 0.500
24.9000 0.419
24.9106 0.398
24.9211 0.419
24.9316 0.378
24.9421 0.419
24.9526 0.470
24.9632 0.368
24.9737 0.296
24.9842 0.398
24.9947 0.327
25.0053 0.541
25.0158 0.460
25.0263 0.541
25.0368 0.511
25.0474 0.368
25.0579 0.398
25.0684 0.521
25.0789 0.582
25.0894 0.460
25.1000 0.511
25.1105 0.654
25.1210 0.623
25.1315 0.449
25.1421 0.613
25.1526 0.531
25.1631 0.480
25.1736 0.613
25.1841 0.623
25.1947 0.613
25.2052 0.582
25.2157 0.674
25.2262 0.562
25.2368 0.664
25.2473 0.725
25.2578 0.786
25.2683 0.705
25.2788 0.827
25.2894 0.827
25.2999 0.878
25.3104 0.899
25.3209 0.878
25.3315 0.950
25.3420 1.174
25.3525 1.215
25.3630 1.420
25.3736 1.307
25.3841 1.522
25.3946 1.757
25.4051 1.940
25.4156 2.032
25.4262 1.981
25.4367 2.339
25.4472 2.635
25.4577 3.084
25.4683 3.830
25.4788 3.962
25.4893 4.473
25.4998 5.096
25.5103 6.097
25.5209 7.210
25.5314 7.230
25.5419 9.028
25.5524 10.039
25.5630 11.142
25.5735 11.857
25.5840 13.388
25.5945 13.695
25.6050 14.767
25.6156 15.431
25.6261 15.278
25.6366 14.951
25.6471 15.145
25.6577 15.135
25.6682 13.603
25.6787 12.633
25.6892 11.591
25.6998 10.080
25.7103 9.334
25.7208 8.599
25.7313 7.516
25.7418 6.842
25.7524 5.831
25.7629 5.219
25.7734 4.381
25.7839 3.758
25.7945 3.421
25.8050 3.217
25.8155 2.717
25.8260 2.277
25.8365 2.185
25.8471 2.022
25.8576 1.379
25.8681 1.501
25.8786 1.634
25.8892 1.328
25.8997 1.083
25.9102 1.103
25.9207 0.929
25.9313 1.062
25.9418 1.011
25.9523 0.899
25.9628 0.950
25.9733 0.878
25.9839 0.735
25.9944 0.786
26.0049 0.735
26.0154 0.837
26.0260 0.797
26.0365 0.633
26.0470 0.623
26.0575 0.694
26.0680 0.664
26.0786 0.521
26.0891 0.511
26.0996 0.603
26.1101 0.633
26.1207 0.500
26.1312 0.541
26.1417 0.470
26.1522 0.347
26.1627 0.511
26.1733 0.398
26.1838 0.521
26.1943 0.460
26.2048 0.470
26.2154 0.562
26.2259 0.603
26.2364 0.511
26.2469 0.388
26.2575 0.490
26.2680 0.439
26.2785 0.419
26.2890 0.327
26.2995 0.276
26.3101 0.470
26.3206 0.419
26.3311 0.306
26.3416 0.470
26.3522 0.317
26.3627 0.398
26.3732 0.398
26.3837 0.470
26.3942 0.449
26.4048 0.368
26.4153 0.419
26.4258 0.470
26.4363 0.439
26.4469 0.357
26.4574 0.347
26.4679 0.429
26.4784 0.408
26.4889 0.266
26.4995 0.388
26.5100 0.357
26.5205 0.347
26.5310 0.398
26.5416 0.347
26.5521 0.408
26.5626 0.266
26.5731 0.521
26.5837 0.449
26.5942 0.460
26.6047 0.337
26.6152 0.327
26.6257 0.245
26.6363 0.460
26.6468 0.327
26.6573 0.337
26.6678 0.460
26.6784 0.408
26.6889 0.337
26.6994 0.327
26.7099 0.429
26.7204 0.408
26.7310 0.317
26.7415 0.337
26.7520 0.327
26.7625 0.235
26.7731 0.327
26.7836 0.398
26.7941 0.327
26.8046 0.337
26.8152 0.531
26.8257 0.357
26.8362 0.266
26.8467 0.296
26.8572 0.225
26.8678 0.368
26.8783 0.347
26.8888 0.276
26.8993 0.368
26.9099 0.368
26.9204 0.368
26.9309 0.327
26.9414 0.368
26.9519 0.388
26.9625 0.286
26.9730 0.337
26.9835 0.439
26.9940 0.357
27.0046 0.357
27.0151 0.388
27.0256 0.306
27.0361 0.357
27.0466 0.357
27.0572 0.306
27.0677 0.337
27.0782 0.378
27.0887 0.347
27.0993 0.327
27.1098 0.317
27.1203 0.245
27.1308 0.327
27.1414 0.398
27.1519 0.194
27.1624 0.378
27.1729 0.357
27.1834 0.296
27.1940 0.368
27.2045 0.398
27.2150 0.357
27.2255 0.357
27.2361 0.347
27.2466 0.286
27.2571 0.419
27.2676 0.480
27.2781 0.286
27.2887 0.317
27.2992 0.276
27.3097 0.266
27.3202 0.255
27.3308 0.327
27.3413 0.327
27.3518 0.398
27.3623 0.276
27.3728 0.347
27.3834 0.276
27.3939 0.286
27.4044 0.276
27.4149 0.337
27.4255 0.439
27.4360 0.460
27.4465 0.347
27.4570 0.276
27.4676 0.286
27.4781 0.317
27.4886 0.357
27.4991 0.429
27.5096 0.266
27.5202 0.266
27.5307 0.368
27.5412 0.255
27.5517 0.398
27.5623 0.327
27.5728 0.255
27.5833 0.204
27.5938 0.388
27.6043 0.357
27.6149 0.276
27.6254 0.276
27.6359 0.235
27.6464 0.327
27.6570 0.347
27.6675 0.429
27.6780 0.347
27.6885 0.449
27.6991 0.317
27.7096 0.225
27.7201 0.347
27.7306 0.235
27.7411 0.214
27.7517 0.306
27.7622 0.286
27.7727 0.327
27.7832 0.460
27.7938 0.276
27.8043 0.296
27.8148 0.327
27.8253 0.266
27.8358 0.286
27.8464 0.337
27.8569 0.276
27.8674 0.327
27.8779 0.327
27.8885 0.296
27.8990 0.306
27.9095 0.245
27.9200 0.276
27.9305 0.276
27.9411 0.296
27.9516 0.398
27.9621 0.398
27.9726 0.296
27.9832 0.337
27.9937 0.357
28.0042 0.306
28.0147 0.235
28.0253 0.255
28.0358 0.225
28.0463 0.266
28.0568 0.388
28.0673 0.214
28.0779 0.388
28.0884 0.317
28.0989 0.378
28.1094 0.296
28.1200 0.306
28.1305 0.255
28.1410 0.317
28.1515 0.266
28.1620 0.419
28.1726 0.296
28.1831 0.296
28.1936 0.245
28.2041 0.286
28.2147 0.347
28.2252 0.327
28.2357 0.327
28.2462 0.449
28.2568 0.306
28.2673 0.357
28.2778 0.255
28.2883 0.357
28.2988 0.368
28.3094 0.317
28.3199 0.327
28.3304 0.419
28.3409 0.327
28.3515 0.408
28.3620 0.347
28.3725 0.255
28.3830 0.357
28.3935 0.347
28.4041 0.306
28.4146 0.286
28.4251 0.347
28.4356 0.327
28.4462 0.398
28.4567 0.429
28.4672 0.245
28.4777 0.225
28.4882 0.388
28.4988 0.235
28.5093 0.347
28.5198 0.296
28.5303 0.449
28.5409 0.276
28.5514 0.357
28.5619 0.337
28.5724 0.398
28.5830 0.368
28.5935 0.266
28.6040 0.235
28.6145 0.357
28.6250 0.388
28.6356 0.306
28.6461 0.306
28.6566 0.357
28.6671 0.235
28.6777 0.266
28.6882 0.429
28.6987 0.347
28.7092 0.317
28.7197 0.368
28.7303 0.388
28.7408 0.255
28.7513 0.306
28.7618 0.245
28.7724 0.225
28.7829 0.296
28.7934 0.296
28.8039 0.347
28.8144 0.327
28.8250 0.378
28.8355 0.266
28.8460 0.357
28.8565 0.378
28.8671 0.317
28.8776 0.419
28.8881 0.408
28.8986 0.388
28.9092 0.317
28.9197 0.357
28.9302 0.306
28.9407 0.408
28.9512 0.276
28.9618 0.419
28.9723 0.317
28.9828 0.317
28.9933 0.562
29.0039 0.460
29.0144 0.460
29.0249 0.460
29.0354 0.357
29.0459 0.398
29.0565 0.327
29.0670 0.429
29.0775 0.337
29.0880 0.470
29.0986 0.327
29.1091 0.317
29.1196 0.470
29.1301 0.408
29.1407 0.398
29.1512 0.449
29.1617 0.357
29.1722 0.378
29.1827 0.388
29.1933 0.551
29.2038 0.500
29.2143 0.357
29.2248 0.480
29.2354 0.449
29.2459 0.470
29.2564 0.429
29.2669 0.388
29.2774 0.408
29.2880 0.562
29.2985 0.521
29.3090 0.582
29.3195 0.643
29.3301 0.705
29.3406 0.541
29.3511 0.521
29.3616 0.694
29.3721 0.766
29.3827 0.643
29.3932 0.623
29.4037 0.715
29.4142 0.837
29.4248 0.633
29.4353 0.623
29.4458 0.837
29.4563 0.797
29.4669 0.858
29.4774 1.011
29.4879 0.991
29.4984 1.205
29.5089 1.072
29.5195 1.266
29.5300 1.256
29.5405 1.440
29.5510 1.552
29.5616 1.614
29.5721 1.848
29.5826 1.614
29.5931 2.226
29.6036 1.971
29.6142 2.665
29.6247 2.645
29.6352 2.737
29.6457 3.431
29.6563 3.860
29.6668 4.126
29.6773 4.657
29.6878 5.372
29.6983 6.158
29.7089 6.291
29.7194 7.210
29.7299 7.751
29.7404 8.609
29.7510 9.324
29.7615 10.202
29.7720 10.600
29.7825 10.447
29.7931 11.213
29.8036 11.315
29.8141 12.214
29.8246 12.674
29.8351 12.265
29.8457 11.652
29.8562 11.928
29.8667 10.917
29.8772 11.070
29.8878 10.703
29.8983 9.600
29.9088 8.824
29.9193 8.466
29.9298 7.629
29.9404 6.281
29.9509 6.179
29.9614 5.607
29.9719 4.861
29.9825 4.708
29.9930 4.085
30.0035 3.380
30.0140 2.962
30.0246 2.696
30.0351 2.420
30.0456 2.216
30.0561 2.165
30.0666 1.900
30.0772 1.746
30.0877 1.460
30.0982 1.225
30.1087 1.297
30.1193 1.164
30.1298 0.940
30.1403 0.868
30.1508 1.042
30.1613 0.858
30.1719 0.837
30.1824 0.776
30.1929 0.756
30.2034 0.603
30.2140 0.521
30.2245 0.715
30.2350 0.592
30.2455 0.643
30.2560 0.603
30.2666 0.623
30.2771 0.449
30.2876 0.531
30.2981 0.470
30.3087 0.562
30.3192 0.460
30.3297 0.521
30.3402 0.378
30.3508 0.449
30.3613 0.460
30.3718 0.460
30.3823 0.500
30.3928 0.347
30.4034 0.327
30.4139 0.378
30.4244 0.398
30.4349 0.419
30.4455 0.327
30.4560 0.388
30.4665 0.266
30.4770 0.368
30.4875 0.296
30.4981 0.357
30.5086 0.357
30.5191 0.408
30.5296 0.419
30.5402 0.388
30.5507 0.327
30.5612 0.388
30.5717 0.235
30.5822 0.388
30.5928 0.337
30.6033 0.419
30.6138 0.266
30.6243 0.419
30.6349 0.408
30.6454 0.266
30.6559 0.296
30.6664 0.388
30.6770 0.408
30.6875 0.419
30.6980 0.317
30.7085 0.347
30.7190 0.368
30.7296 0.378
30.7401 0.357
30.7506 0.204
30.7611 0.306
30.7717 0.357
30.7822 0.255
30.7927 0.286
30.8032 0.347
30.8137 0.286
30.8243 0.317
30.8348 0.317
30.8453 0.317
30.8558 0.347
30.8664 0.368
30.8769 0.368
30.8874 0.398
30.8979 0.286
30.9085 0.286
30.9190 0.255
30.9295 0.296
30.9400 0.419
30.9505 0.225
30.9611 0.266
30.9716 0.368
30.9821 0.306
30.9926 0.357
31.0032 0.327
31.0137 0.194
31.0242 0.306
31.0347 0.439
31.0452 0.368
31.0558 0.378
31.0663 0.296
31.0768 0.337
31.0873 0.357
31.0979 0.337
31.1084 0.327
31.1189 0.194
31.1294 0.317
31.1399 0.357
31.1505 0.286
31.1610 0.337
31.1715 0.296
31.1820 0.368
31.1926 0.368
31.2031 0.317
31.2136 0.368
31.2241 0.255
31.2347 0.235
31.2452 0.317
31.2557 0.378
31.2662 0.306
31.2767 0.255
31.2873 0.204
31.2978 0.368
31.3083 0.347
31.3188 0.235
31.3294 0.317
31.3399 0.276
31.3504 0.317
31.3609 0.327
31.3714 0.225
31.3820 0.337
31.3925 0.357
31.4030 0.266
31.4135 0.449
31.4241 0.255
31.4346 0.266
31.4451 0.204
31.4556 0.184
31.4662 0.174
31.4767 0.153
31.4872 0.347
31.4977 0.306
31.5082 0.337
31.5188 0.235
31.5293 0.368
31.5398 0.235
31.5503 0.245
31.5609 0.347
31.5714 0.266
31.5819 0.276
31.5924 0.347
31.6029 0.296
31.6135 0.184
31.6240 0.337
31.6345 0.306
31.6450 0.317
31.6556 0.317
31.6661 0.235
31.6766 0.225
31.6871 0.500
31.6976 0.337
31.7082 0.357
31.7187 0.347
31.7292 0.429
31.7397 0.531
31.7503 0.490
31.7608 0.306
31.7713 0.337
31.7818 0.388
31.7924 0.347
31.8029 0.419
31.8134 0.419
31.8239 0.245
31.8344 0.388
31.8450 0.490
31.8555 0.408
31.8660 0.419
31.8765 0.388
31.8871 0.541
31.8976 0.470
31.9081 0.521
31.9186 0.296
31.9291 0.378
31.9397 0.551
31.9502 0.562
31.9607 0.511
31.9712 0.623
31.9818 0.684
31.9923 0.664
32.0028 0.592
32.0133 0.715
32.0238 0.756
32.0344 0.950
32.0449 0.725
32.0554 0.980
32.0659 1.042
32.0765 1.031
32.0870 1.389
32.0975 1.389
32.1080 1.563
32.1186 1.481
32.1291 2.032
32.1396 2.257
32.1501 2.778
32.1606 2.604
32.1712 2.962
32.1817 3.360
32.1922 3.993
32.2027 4.248
32.2133 4.504
32.2238 5.290
32.2343 4.769
32.2448 5.576
32.2553 6.056
32.2659 5.862
32.2764 5.310
32.2869 5.801
32.2974 5.259
32.3080 4.524
32.3185 4.218
32.3290 3.605
32.3395 3.799
32.3501 3.360
32.3606 3.176
32.3711 2.768
32.3816 2.308
32.3921 2.247
32.4027 1.828
32.4132 1.808
32.4237 1.511
32.4342 1.266
32.4448 1.185
32.4553 1.083
32.4658 0.980
32.4763 0.960
32.4868 0.909
32.4974 0.613
32.5079 0.746
32.5184 0.735
32.5289 0.592
32.5395 0.613
32.5500 0.613
32.5605 0.531
32.5710 0.572
32.5815 0.480
32.5921 0.521
32.6026 0.470
32.6131 0.408
32.6236 0.419
32.6342 0.306
32.6447 0.460
32.6552 0.368
32.6657 0.378
32.6763 0.408
32.6868 0.398
32.6973 0.286
32.7078 0.194
32.7183 0.327
32.7289 0.357
32.7394 0.337
32.7499 0.378
32.7604 0.347
32.7710 0.266
32.7815 0.388
32.7920 0.398
32.8025 0.245
32.8130 0.306
32.8236 0.194
32.8341 0.306
32.8446 0.255
32.8551 0.357
32.8657 0.255
32.8762 0.357
32.8867 0.419
32.8972 0.419
32.9077 0.266
32.9183 0.235
32.9288 0.337
32.9393 0.306
32.9498 0.245
32.9604 0.347
32.9709 0.235
32.9814 0.235
32.9919 0.255
33.0025 0.317
33.0130 0.306
33.0235 0.276
33.0340 0.214
33.0445 0.245
33.0551 0.255
33.0656 0.194
33.0761 0.306
33.0866 0.194
33.0972 0.153
33.1077 0.327
33.1182 0.153
33.1287 0.255
33.1392 0.337
33.1498 0.266
33.1603 0.327
33.1708 0.225
33.1813 0.296
33.1919 0.337
33.2024 0.306
33.2129 0.225
33.2234 0.337
33.2340 0.286
33.2445 0.266
33.2550 0.286
33.2655 0.245
33.2760 0.378
33.2866 0.225
33.2971 0.214
33.3076 0.194
33.3181 0.204
33.3287 0.327
33.3392 0.276
33.3497 0.276
33.3602 0.255
33.3707 0.255
33.3813 0.286
33.3918 0.327
33.4023 0.276
33.4128 0.255
33.4234 0.276
33.4339 0.347
33.4444 0.174
33.4549 0.266
33.4654 0.245
33.4760 0.245
33.4865 0.245
33.4970 0.296
33.5075 0.296
33.5181 0.204
33.5286 0.194
33.5391 0.306
33.5496 0.296
33.5602 0.225
33.5707 0.276
33.5812 0.276
33.5917 0.225
33.6022 0.317
33.6128 0.317
33.6233 0.306
33.6338 0.347
33.6443 0.276
33.6549 0.317
33.6654 0.296
33.6759 0.235
33.6864 0.225
33.6969 0.255
33.7075 0.296
33.7180 0.163
33.7285 0.235
33.7390 0.286
33.7496 0.296
33.7601 0.225
33.7706 0.306
33.7811 0.255
33.7916 0.347
33.8022 0.317
33.8127 0.286
33.8232 0.163
33.8337 0.266
33.8443 0.266
33.8548 0.245
33.8653 0.214
33.8758 0.306
33.8864 0.214
33.8969 0.245
33.9074 0.245
33.9179 0.296
33.9284 0.204
33.9390 0.347
33.9495 0.317
33.9600 0.235
33.9705 0.286
33.9811 0.286
33.9916 0.276
34.0021 0.286
34.0126 0.306
34.0231 0.276
34.0337 0.327
34.0442 0.184
34.0547 0.286
34.0652 0.245
34.0758 0.296
34.0863 0.266
34.0968 0.357
34.1073 0.266
34.1179 0.225
34.1284 0.347
34.1389 0.296
34.1494 0.276
34.1599 0.368
34.1705 0.266
34.1810 0.245
34.1915 0.306
34.2020 0.296
34.2126 0.286
34.2231 0.286
34.2336 0.449
34.2441 0.194
34.2546 0.194
34.2652 0.266
34.2757 0.306
34.2862 0.368
34.2967 0.296
34.3073 0.347
34.3178 0.266
34.3283 0.398
34.3388 0.225
34.3493 0.357
34.3599 0.368
34.3704 0.408
34.3809 0.357
34.3914 0.378
34.4020 0.266
34.4125 0.419
34.4230 0.460
34.4335 0.347
34.4441 0.357
34.4546 0.286
34.4651 0.357
34.4756 0.398
34.4861 0.368
34.4967 0.490
34.5072 0.603
34.5177 0.368
34.5282 0.378
34.5388 0.470
34.5493 0.419
34.5598 0.521
34.5703 0.388
34.5808 0.562
34.5914 0.674
34.6019 0.623
34.6124 0.541
34.6229 0.592
34.6335 0.684
34.6440 0.715
34.6545 0.633
34.6650 0.592
34.6756 0.603
34.6861 0.582
34.6966 0.511
34.7071 0.460
34.7176 0.551
34.7282 0.511
34.7387 0.725
34.7492 0.572
34.7597 0.439
34.7703 0.439
34.7808 0.470
34.7913 0.470
34.8018 0.500
34.8123 0.460
34.8229 0.439
34.8334 0.521
34.8439 0.490
34.8544 0.368
34.8650 0.398
34.8755 0.327
34.8860 0.378
34.8965 0.419
34.9070 0.449
34.9176 0.347
34.9281 0.388
34.9386 0.327
34.9491 0.398
34.9597 0.388
34.9702 0.531
34.9807 0.378
34.9912 0.388
35.0018 0.449
35.0123 0.317
35.0228 0.449
35.0333 0.439
35.0438 0.378
35.0544 0.521
35.0649 0.408
35.0754 0.490
35.0859 0.460
35.0965 0.541
35.1070 0.572
35.1175 0.470
35.1280 0.460
35.1385 0.398
35.1491 0.429
35.1596 0.654
35.1701 0.633
35.1806 0.674
35.1912 0.551
35.2017 0.572
35.2122 0.572
35.2227 0.623
35.2332 0.623
35.2438 0.633
35.2543 0.766
35.2648 0.837
35.2753 0.899
35.2859 0.776
35.2964 1.001
35.3069 0.940
35.3174 1.062
35.3280 1.215
35.3385 1.174
35.3490 1.103
35.3595 1.481
35.3700 1.542
35.3806 1.716
35.3911 1.787
35.4016 1.808
35.4121 1.940
35.4227 2.318
35.4332 2.349
35.4437 2.768
35.4542 2.768
35.4647 3.329
35.4753 3.442
35.4858 3.932
35.4963 4.769
35.5068 5.116
35.5174 5.933
35.5279 6.046
35.5384 7.200
35.5489 7.700
35.5595 8.813
35.5700 10.059
35.5805 10.815
35.5910 12.132
35.6015 13.164
35.6121 14.205
35.6226 15.574
35.6331 16.360
35.6436 16.197
35.6542 16.156
35.6647 15.993
35.6752 15.176
35.6857 15.523
35.6962 15.237
35.7068 13.787
35.7173 12.531
35.7278 11.887
35.7383 10.580
35.7489 10.069
35.7594 8.905
35.7699 7.537
35.7804 6.679
35.7909 6.281
35.8015 5.239
35.8120 5.443
35.8225 4.330
35.8330 4.228
35.8436 3.615
35.8541 3.350
35.8646 2.870
35.8751 2.655
35.8857 2.379
35.8962 2.247
35.9067 2.124
35.9172 1.797
35.9277 1.767
35.9383 1.522
35.9488 1.634
35.9593 1.134
35.9698 1.368
35.9804 1.358
35.9909 1.430
36.0014 1.174
36.0119 0.950
36.0224 0.929
36.0330 1.031
36.0435 0.970
36.0540 0.746
36.0645 0.643
36.0751 1.103
36.0856 0.592
36.0961 0.664
36.1066 0.735
36.1171 0.715
36.1277 0.603
36.1382 0.643
36.1487 0.603
36.1592 0.562
36.1698 0.756
36.1803 0.735
36.1908 0.756
36.2013 0.643
36.2119 0.521
36.2224 0.572
36.2329 0.746
36.2434 0.776
36.2539 0.684
36.2645 0.746
36.2750 0.674
36.2855 0.756
36.2960 0.664
36.3066 0.940
36.3171 0.756
36.3276 0.766
36.3381 1.072
36.3486 0.837
36.3592 0.756
36.3697 1.103
36.3802 0.991
36.3907 1.164
36.4013 1.174
36.4118 1.083
36.4223 1.236
36.4328 1.338
36.4434 1.471
36.4539 1.665
36.4644 1.757
36.4749 1.767
36.4854 1.726
36.4960 2.155
36.5065 2.441
36.5170 2.574
36.5275 2.798
36.5381 3.217
36.5486 3.380
36.5591 3.503
36.5696 4.065
36.5801 3.830
36.5907 4.218
36.6012 4.606
36.6117 4.718
36.6222 5.699
36.6328 4.994
36.6433 4.800
36.6538 4.871
36.6643 4.442
36.6748 4.473
36.6854 4.381
36.6959 4.003
36.7064 4.075
36.7169 3.431
36.7275 3.431
36.7380 3.135
36.7485 3.054
36.7590 2.880
36.7696 2.298
36.7801 1.828
36.7906 1.930
36.8011 2.165
36.8116 1.777
36.8222 1.563
36.8327 1.828
36.8432 1.123
36.8537 1.144
36.8643 1.031
36.8748 0.837
36.8853 0.715
36.8958 0.950
36.9063 0.868
36.9169 0.746
36.9274 0.613
36.9379 0.603
36.9484 0.521
36.9590 0.746
36.9695 0.429
36.9800 0.623
36.9905 0.541
37.0010 0.511
37.0116 0.470
37.0221 0.429
37.0326 0.490
37.0431 0.490
37.0537 0.347
37.0642 0.368
37.0747 0.439
37.0852 0.408
37.0958 0.439
37.1063 0.378
37.1168 0.347
37.1273 0.398
37.1378 0.327
37.1484 0.357
37.1589 0.337
37.1694 0.357
37.1799 0.337
37.1905 0.286
37.2010 0.317
37.2115 0.368
37.2220 0.225
37.2325 0.296
37.2431 0.337
37.2536 0.296
37.2641 0.306
37.2746 0.266
37.2852 0.286
37.2957 0.266
37.3062 0.368
37.3167 0.245
37.3273 0.347
37.3378 0.266
37.3483 0.276
37.3588 0.357
37.3693 0.327
37.3799 0.276
37.3904 0.286
37.4009 0.286
37.4114 0.286
37.4220 0.296
37.4325 0.378
37.4430 0.225
37.4535 0.327
37.4640 0.378
37.4746 0.368
37.4851 0.429
37.4956 0.429
37.5061 0.347
37.5167 0.306
37.5272 0.296
37.5377 0.357
37.5482 0.306
37.5587 0.429
37.5693 0.368
37.5798 0.357
37.5903 0.388
37.6008 0.490
37.6114 0.276
37.6219 0.306
37.6324 0.327
37.6429 0.357
37.6535 0.429
37.6640 0.521
37.6745 0.398
37.6850 0.582
37.6955 0.643
37.7061 0.531
37.7166 0.592
37.7271 0.654
37.7376 0.786
37.7482 0.756
37.7587 0.817
37.7692 0.674
37.7797 0.970
37.7902 1.001
37.8008 0.940
37.8113 1.113
37.8218 1.420
37.8323 1.399
37.8429 1.634
37.8534 1.726
37.8639 1.808
37.8744 2.104
37.8849 2.553
37.8955 2.492
37.9060 2.594
37.9165 3.043
37.9270 3.288
37.9376 3.564
37.9481 3.339
37.9586 3.636
37.9691 3.523
37.9797 3.585
37.9902 3.452
38.0007 3.288
38.0112 2.982
38.0217 2.859
38.0323 2.921
38.0428 2.492
38.0533 2.410
38.0638 1.695
38.0744 1.787
38.0849 1.767
38.0954 1.563
38.1059 1.481
38.1164 1.297
38.1270 1.062
38.1375 0.980
38.1480 1.062
38.1585 0.837
38.1691 0.786
38.1796 0.654
38.1901 0.664
38.2006 0.654
38.2112 0.603
38.2217 0.623
38.2322 0.705
38.2427 0.705
38.2532 0.643
38.2638 0.572
38.2743 0.603
38.2848 0.429
38.2953 0.511
38.3059 0.511
38.3164 0.449
38.3269 0.429
38.3374 0.449
38.3479 0.562
38.3585 0.449
38.3690 0.531
38.3795 0.419
38.3900 0.592
38.4006 0.398
38.4111 0.357
38.4216 0.378
38.4321 0.408
38.4426 0.388
38.4532 0.306
38.4637 0.235
38.4742 0.235
38.4847 0.317
38.4953 0.368
38.5058 0.357
38.5163 0.296
38.5268 0.347
38.5374 0.276
38.5479 0.276
38.5584 0.225
38.5689 0.306
38.5794 0.306
38.5900 0.204
38.6005 0.327
38.6110 0.204
38.6215 0.204
38.6321 0.286
38.6426 0.306
38.6531 0.214
38.6636 0.225
38.6741 0.214
38.6847 0.296
38.6952 0.296
38.7057 0.317
38.7162 0.337
38.7268 0.327
38.7373 0.296
38.7478 0.286
38.7583 0.214
38.7689 0.225
38.7794 0.306
38.7899 0.286
38.8004 0.408
38.8109 0.255
38.8215 0.317
38.8320 0.184
38.8425 0.225
38.8530 0.276
38.8636 0.337
38.8741 0.255
38.8846 0.296
38.8951 0.276
38.9056 0.357
38.9162 0.286
38.9267 0.276
38.9372 0.225
38.9477 0.266
38.9583 0.266
38.9688 0.327
38.9793 0.255
38.9898 0.306
39.0003 0.419
39.0109 0.357
39.0214 0.388
39.0319 0.276
39.0424 0.286
39.0530 0.408
39.0635 0.449
39.0740 0.317
39.0845 0.398
39.0951 0.408
39.1056 0.337
39.1161 0.337
39.1266 0.439
39.1371 0.521
39.1477 0.521
39.1582 0.562
39.1687 0.674
39.1792 0.551
39.1898 0.613
39.2003 0.878
39.2108 0.715
39.2213 0.980
39.2318 1.083
39.2424 1.256
39.2529 1.185
39.2634 1.409
39.2739 1.624
39.2845 1.583
39.2950 1.573
39.3055 1.563
39.3160 1.900
39.3265 2.165
39.3371 2.134
39.3476 2.053
39.3581 2.451
39.3686 2.420
39.3792 2.420
39.3897 2.175
39.4002 1.910
39.4107 2.083
39.4213 2.145
39.4318 1.971
39.4423 2.012
39.4528 1.593
39.4633 1.685
39.4739 1.409
39.4844 1.583
39.4949 1.113
39.5054 1.460
39.5160 1.277
39.5265 1.174
39.5370 1.358
39.5475 1.072
39.5580 1.409
39.5686 1.409
39.5791 1.563
39.5896 1.654
39.6001 1.614
39.6107 1.716
39.6212 2.002
39.6317 1.940
39.6422 2.002
39.6528 2.359
39.6633 2.267
39.6738 2.604
39.6843 2.931
39.6948 2.972
39.7054 3.227
39.7159 3.084
39.7264 3.636
39.7369 3.656
39.7475 4.116
39.7580 3.768
39.7685 3.819
39.7790 3.697
39.7895 4.126
39.8001 4.259
39.8106 4.483
39.8211 4.616
39.8316 4.647
39.8422 4.616
39.8527 4.136
39.8632 4.208
39.8737 3.932
39.8842 3.840
39.8948 3.809
39.9053 3.687
39.9158 3.176
39.9263 3.023
39.9369 3.084
39.9474 2.604
39.9579 2.247
39.9684 2.175
39.9790 1.797
39.9895 1.501
40.0000 1.471
40.0105 1.420
40.0210 1.266
40.0316 1.348
40.0421 1.062
40.0526 1.103
40.0631 1.001
40.0737 0.827
40.0842 0.940
40.0947 0.837
40.1052 0.592
40.1157 0.490
40.1263 0.654
40.1368 0.592
40.1473 0.674
40.1578 0.398
40.1684 0.460
40.1789 0.572
40.1894 0.460
40.1999 0.439
40.2104 0.419
40.2210 0.541
40.2315 0.419
40.2420 0.408
40.2525 0.368
40.2631 0.266
40.2736 0.194
40.2841 0.327
40.2946 0.327
40.3052 0.378
40.3157 0.266
40.3262 0.214
40.3367 0.266
40.3472 0.327
40.3578 0.327
40.3683 0.306
40.3788 0.378
40.3893 0.225
40.3999 0.235
40.4104 0.143
40.4209 0.306
40.4314 0.317
40.4419 0.266
40.4525 0.225
40.4630 0.235
40.4735 0.214
40.4840 0.214
40.4946 0.174
40.5051 0.245
40.5156 0.255
40.5261 0.408
40.5367 0.327
40.5472 0.266
40.5577 0.214
40.5682 0.296
40.5787 0.245
40.5893 0.235
40.5998 0.214
40.6103 0.245
40.6208 0.235
40.6314 0.194
40.6419 0.194
40.6524 0.276
40.6629 0.245
40.6734 0.194
40.6840 0.163
40.6945 0.225
40.7050 0.276
40.7155 0.276
40.7261 0.225
40.7366 0.153
40.7471 0.214
40.7576 0.143
40.7681 0.225
40.7787 0.174
40.7892 0.194
40.7997 0.245
40.8102 0.214
40.8208 0.245
40.8313 0.163
40.8418 0.266
40.8523 0.235
40.8629 0.225
40.8734 0.194
40.8839 0.204
40.8944 0.163
40.9049 0.153
40.9155 0.184
40.9260 0.245
40.9365 0.163
40.9470 0.163
40.9576 0.163
40.9681 0.194
40.9786 0.245
40.9891 0.214
40.9996 0.235
41.0102 0.133
41.0207 0.194
41.0312 0.163
41.0417 0.194
41.0523 0.286
41.0628 0.235
41.0733 0.245
41.0838 0.204
41.0943 0.225
41.1049 0.133
41.1154 0.235
41.1259 0.204
41.1364 0.163
41.1470 0.204
41.1575 0.133
41.1680 0.133
41.1785 0.214
41.1891 0.225
41.1996 0.214
41.2101 0.143
41.2206 0.184
41.2311 0.112
41.2417 0.174
41.2522 0.225
41.2627 0.143
41.2732 0.174
41.2838 0.235
41.2943 0.174
41.3048 0.184
41.3153 0.204
41.3258 0.184
41.3364 0.235
41.3469 0.123
41.3574 0.255
41.3679 0.143
41.3785 0.194
41.3890 0.266
41.3995 0.204
41.4100 0.214
41.4206 0.143
41.4311 0.276
41.4416 0.245
41.4521 0.214
41.4626 0.174
41.4732 0.235
41.4837 0.194
41.4942 0.194
41.5047 0.255
41.5153 0.214
41.5258 0.204
41.5363 0.245
41.5468 0.235
41.5573 0.235
41.5679 0.276
41.5784 0.235
41.5889 0.174
41.5994 0.266
41.6100 0.214
41.6205 0.266
41.6310 0.225
41.6415 0.194
41.6520 0.174
41.6626 0.235
41.6731 0.245
41.6836 0.214
41.6941 0.194
41.7047 0.357
41.7152 0.255
41.7257 0.225
41.7362 0.266
41.7468 0.204
41.7573 0.296
41.7678 0.194
41.7783 0.286
41.7888 0.408
41.7994 0.225
41.8099 0.357
41.8204 0.296
41.8309 0.245
41.8415 0.266
41.8520 0.490
41.8625 0.317
41.8730 0.317
41.8835 0.235
41.8941 0.266
41.9046 0.255
41.9151 0.388
41.9256 0.378
41.9362 0.317
41.9467 0.429
41.9572 0.306
41.9677 0.480
41.9783 0.551
41.9888 0.296
41.9993 0.388
42.0098 0.592
42.0203 0.480
42.0309 0.551
42.0414 0.541
42.0519 0.623
42.0624 0.572
42.0730 0.664
42.0835 0.940
42.0940 0.817
42.1045 0.878
42.1150 1.144
42.1256 1.123
42.1361 1.348
42.1466 1.307
42.1571 1.471
42.1677 1.563
42.1782 1.787
42.1887 1.746
42.1992 2.032
42.2097 2.369
42.2203 2.676
42.2308 2.379
42.2413 2.645
42.2518 2.819
42.2624 2.951
42.2729 3.125
42.2834 2.911
42.2939 2.880
42.3045 2.625
42.3150 2.625
42.3255 2.737
42.3360 2.308
42.3465 2.114
42.3571 2.002
42.3676 1.818
42.3781 1.981
42.3886 1.573
42.3992 1.368
42.4097 1.307
42.4202 1.256
42.4307 1.103
42.4412 1.062
42.4518 0.888
42.4623 0.807
42.4728 0.899
42.4833 0.664
42.4939 0.725
42.5044 0.643
42.5149 0.643
42.5254 0.592
42.5359 0.551
42.5465 0.480
42.5570 0.490
42.5675 0.429
42.5780 0.500
42.5886 0.357
42.5991 0.419
42.6096 0.408
42.6201 0.368
42.6307 0.378
42.6412 0.296
42.6517 0.286
42.6622 0.368
42.6727 0.317
42.6833 0.296
42.6938 0.317
42.7043 0.296
42.7148 0.245
42.7254 0.357
42.7359 0.235
42.7464 0.255
42.7569 0.276
42.7674 0.235
42.7780 0.337
42.7885 0.184
42.7990 0.266
42.8095 0.296
42.8201 0.184
42.8306 0.235
42.8411 0.296
42.8516 0.153
42.8622 0.163
42.8727 0.276
42.8832 0.245
42.8937 0.174
42.9042 0.163
42.9148 0.235
42.9253 0.194
42.9358 0.255
42.9463 0.225
42.9569 0.194
42.9674 0.174
42.9779 0.225
42.9884 0.266
42.9989 0.286
43.0095 0.153
43.0200 0.143
43.0305 0.174
43.0410 0.194
43.0516 0.133
43.0621 0.204
43.0726 0.204
43.0831 0.255
43.0936 0.225
43.1042 0.225
43.1147 0.194
43.1252 0.245
43.1357 0.266
43.1463 0.184
43.1568 0.204
43.1673 0.163
43.1778 0.092
43.1884 0.174
43.1989 0.204
43.2094 0.184
43.2199 0.194
43.2304 0.153
43.2410 0.102
43.2515 0.112
43.2620 0.204
43.2725 0.123
43.2831 0.133
43.2936 0.102
43.3041 0.153
43.3146 0.255
43.3251 0.163
43.3357 0.174
43.3462 0.153
43.3567 0.174
43.3672 0.102
43.3778 0.194
43.3883 0.235
43.3988 0.163
43.4093 0.163
43.4198 0.204
43.4304 0.194
43.4409 0.194
43.4514 0.153
43.4619 0.184
43.4725 0.235
43.4830 0.194
43.4935 0.184
43.5040 0.204
43.5146 0.184
43.5251 0.255
43.5356 0.194
43.5461 0.225
43.5566 0.102
43.5672 0.123
43.5777 0.153
43.5882 0.194
43.5987 0.255
43.6093 0.204
43.6198 0.245
43.6303 0.123
43.6408 0.184
43.6513 0.153
43.6619 0.163
43.6724 0.174
43.6829 0.123
43.6934 0.204
43.7040 0.184
43.7145 0.286
43.7250 0.245
43.7355 0.163
43.7461 0.255
43.7566 0.204
43.7671 0.174
43.7776 0.194
43.7881 0.214
43.7987 0.194
43.8092 0.276
43.8197 0.225
43.8302 0.174
43.8408 0.194
43.8513 0.153
43.8618 0.204
43.8723 0.194
43.8828 0.337
43.8934 0.266
43.9039 0.204
43.9144 0.194
43.9249 0.184
43.9355 0.214
43.9460 0.204
43.9565 0.194
43.9670 0.255
43.9775 0.214
43.9881 0.194
43.9986 0.133
44.0091 0.174
44.0196 0.235
44.0302 0.194
44.0407 0.225
44.0512 0.276
44.0617 0.194
44.0723 0.225
44.0828 0.245
44.0933 0.235
44.1038 0.184
44.1143 0.245
44.1249 0.225
44.1354 0.255
44.1459 0.225
44.1564 0.276
44.1670 0.306
44.1775 0.245
44.1880 0.306
44.1985 0.225
44.2090 0.317
44.2196 0.337
44.2301 0.276
44.2406 0.419
44.2511 0.296
44.2617 0.368
44.2722 0.337
44.2827 0.398
44.2932 0.317
44.3037 0.429
44.3143 0.521
44.3248 0.500
44.3353 0.511
44.3458 0.592
44.3564 0.480
44.3669 0.368
44.3774 0.562
44.3879 0.715
44.3985 0.531
44.4090 0.633
44.4195 0.766
44.4300 0.848
44.4405 0.827
44.4511 0.899
44.4616 0.919
44.4721 1.031
44.4826 0.991
44.4932 0.878
44.5037 1.011
44.5142 0.776
44.5247 0.694
44.5352 0.858
44.5458 0.797
44.5563 0.848
44.5668 0.776
44.5773 0.817
44.5879 0.684
44.5984 0.654
44.6089 0.531
44.6194 0.551
44.6300 0.521
44.6405 0.562
44.6510 0.460
44.6615 0.541
44.6720 0.439
44.6826 0.388
44.6931 0.388
44.7036 0.541
44.7141 0.470
44.7247 0.378
44.7352 0.388
44.7457 0.347
44.7562 0.347
44.7667 0.266
44.7773 0.368
44.7878 0.286
44.7983 0.378
44.8088 0.347
44.8194 0.286
44.8299 0.439
44.8404 0.378
44.8509 0.368
44.8614 0.408
44.8720 0.286
44.8825 0.572
44.8930 0.408
44.9035 0.388
44.9141 0.531
44.9246 0.582
44.9351 0.633
44.9456 0.664
44.9562 0.623
44.9667 0.664
44.9772 0.715
44.9877 0.664
44.9982 0.694
45.0088 0.888
45.0193 0.766
45.0298 0.970
45.0403 0.991
45.0509 0.837
45.0614 0.725
45.0719 0.756
45.0824 0.705
45.0929 0.786
45.1035 0.694
45.1140 0.633
45.1245 0.633
45.1350 0.500
45.1456 0.582
45.1561 0.613
45.1666 0.511
45.1771 0.429
45.1877 0.460
45.1982 0.306
45.2087 0.429
45.2192 0.368
45.2297 0.276
45.2403 0.480
45.2508 0.245
45.2613 0.378
45.2718 0.357
45.2824 0.276
45.2929 0.276
45.3034 0.225
45.3139 0.214
45.3244 0.296
45.3350 0.225
45.3455 0.163
45.3560 0.245
45.3665 0.174
45.3771 0.276
45.3876 0.245
45.3981 0.225
45.4086 0.204
45.4191 0.204
45.4297 0.286
45.4402 0.214
45.4507 0.255
45.4612 0.184
45.4718 0.214
45.4823 0.153
45.4928 0.123
45.5033 0.235
45.5139 0.174
45.5244 0.153
45.5349 0.266
45.5454 0.184
45.5559 0.133
45.5665 0.225
45.5770 0.245
45.5875 0.174
45.5980 0.133
45.6086 0.102
45.6191 0.153
45.6296 0.194
45.6401 0.102
45.6506 0.194
45.6612 0.194
45.6717 0.204
45.6822 0.112
45.6927 0.184
45.7033 0.225
45.7138 0.153
45.7243 0.174
45.7348 0.174
45.7453 0.143
45.7559 0.204
45.7664 0.194
45.7769 0.133
45.7874 0.286
45.7980 0.235
45.8085 0.153
45.8190 0.174
45.8295 0.102
45.8401 0.153
45.8506 0.123
45.8611 0.163
45.8716 0.204
45.8821 0.071
45.8927 0.184
45.9032 0.174
45.9137 0.143
45.9242 0.163
45.9348 0.204
45.9453 0.143
45.9558 0.204
45.9663 0.153
45.9768 0.174
45.9874 0.163
45.9979 0.163
46.0084 0.306
46.0189 0.245
46.0295 0.153
46.0400 0.204
46.0505 0.184
46.0610 0.214
46.0716 0.296
46.0821 0.133
46.0926 0.276
46.1031 0.235
46.1136 0.194
46.1242 0.102
46.1347 0.163
46.1452 0.194
46.1557 0.174
46.1663 0.194
46.1768 0.133
46.1873 0.204
46.1978 0.245
46.2083 0.194
46.2189 0.276
46.2294 0.214
46.2399 0.337
46.2504 0.357
46.2610 0.255
46.2715 0.255
46.2820 0.296
46.2925 0.235
46.3030 0.327
46.3136 0.419
46.3241 0.276
46.3346 0.378
46.3451 0.347
46.3557 0.378
46.3662 0.388
46.3767 0.296
46.3872 0.378
46.3978 0.439
46.4083 0.388
46.4188 0.449
46.4293 0.470
46.4398 0.439
46.4504 0.500
46.4609 0.439
46.4714 0.480
46.4819 0.408
46.4925 0.398
46.5030 0.582
46.5135 0.327
46.5240 0.235
46.5345 0.337
46.5451 0.368
46.5556 0.398
46.5661 0.276
46.5766 0.266
46.5872 0.276
46.5977 0.286
46.6082 0.408
46.6187 0.266
46.6292 0.184
46.6398 0.276
46.6503 0.225
46.6608 0.266
46.6713 0.266
46.6819 0.163
46.6924 0.204
46.7029 0.235
46.7134 0.276
46.7240 0.266
46.7345 0.214
46.7450 0.194
46.7555 0.225
46.7660 0.163
46.7766 0.255
46.7871 0.123
46.7976 0.225
46.8081 0.266
46.8187 0.245
46.8292 0.163
46.8397 0.184
46.8502 0.194
46.8607 0.163
46.8713 0.235
46.8818 0.163
46.8923 0.235
46.9028 0.174
46.9134 0.174
46.9239 0.225
46.9344 0.255
46.9449 0.214
46.9555 0.143
46.9660 0.235
46.9765 0.143
46.9870 0.214
46.9975 0.245
47.0081 0.245
47.0186 0.133
47.0291 0.245
47.0396 0.143
47.0502 0.153
47.0607 0.184
47.0712 0.112
47.0817 0.245
47.0922 0.204
47.1028 0.143
47.1133 0.143
47.1238 0.153
47.1343 0.123
47.1449 0.174
47.1554 0.082
47.1659 0.194
47.1764 0.174
47.1869 0.225
47.1975 0.092
47.2080 0.112
47.2185 0.153
47.2290 0.112
47.2396 0.143
47.2501 0.174
47.2606 0.194
47.2711 0.204
47.2817 0.153
47.2922 0.214
47.3027 0.153
47.3132 0.143
47.3237 0.235
47.3343 0.214
47.3448 0.153
47.3553 0.194
47.3658 0.143
47.3764 0.204
47.3869 0.123
47.3974 0.225
47.4079 0.266
47.4184 0.143
47.4290 0.204
47.4395 0.133
47.4500 0.214
47.4605 0.184
47.4711 0.214
47.4816 0.204
47.4921 0.123
47.5026 0.255
47.5131 0.174
47.5237 0.184
47.5342 0.112
47.5447 0.174
47.5552 0.143
47.5658 0.204
47.5763 0.194
47.5868 0.235
47.5973 0.184
47.6079 0.143
47.6184 0.214
47.6289 0.092
47.6394 0.214
47.6499 0.214
47.6605 0.143
47.6710 0.153
47.6815 0.123
47.6920 0.143
47.7026 0.225
47.7131 0.255
47.7236 0.184
47.7341 0.153
47.7446 0.235
47.7552 0.163
47.7657 0.245
47.7762 0.214
47.7867 0.153
47.7973 0.184
47.8078 0.153
47.8183 0.184
47.8288 0.214
47.8394 0.194
47.8499 0.225
47.8604 0.143
47.8709 0.153
47.8814 0.225
47.8920 0.194
47.9025 0.255
47.9130 0.214
47.9235 0.225
47.9341 0.174
47.9446 0.204
47.9551 0.235
47.9656 0.174
47.9761 0.266
47.9867 0.296
47.9972 0.306
48.0077 0.235
48.0182 0.327
48.0288 0.245
48.0393 0.266
48.0498 0.378
48.0603 0.347
48.0708 0.357
48.0814 0.337
48.0919 0.368
48.1024 0.337
48.1129 0.429
48.1235 0.378
48.1340 0.378
48.1445 0.378
48.1550 0.429
48.1656 0.388
48.1761 0.327
48.1866 0.357
48.1971 0.511
48.2076 0.337
48.2182 0.327
48.2287 0.357
48.2392 0.266
48.2497 0.266
48.2603 0.286
48.2708 0.194
48.2813 0.225
48.2918 0.255
48.3023 0.266
48.3129 0.255
48.3234 0.266
48.3339 0.276
48.3444 0.286
48.3550 0.296
48.3655 0.296
48.3760 0.235
48.3865 0.255
48.3970 0.296
48.4076 0.174
48.4181 0.235
48.4286 0.082
48.4391 0.194
48.4497 0.204
48.4602 0.214
48.4707 0.204
48.4812 0.225
48.4918 0.153
48.5023 0.184
48.5128 0.245
48.5233 0.174
48.5338 0.255
48.5444 0.235
48.5549 0.214
48.5654 0.153
48.5759 0.245
48.5865 0.174
48.5970 0.255
48.6075 0.194
48.6180 0.204
48.6285 0.245
48.6391 0.204
48.6496 0.306
48.6601 0.276
48.6706 0.163
48.6812 0.174
48.6917 0.184
48.7022 0.235
48.7127 0.245
48.7233 0.306
48.7338 0.296
48.7443 0.286
48.7548 0.225
48.7653 0.225
48.7759 0.317
48.7864 0.266
48.7969 0.357
48.8074 0.337
48.8180 0.255
48.8285 0.347
48.8390 0.296
48.8495 0.225
48.8600 0.204
48.8706 0.225
48.8811 0.245
48.8916 0.429
48.9021 0.235
48.9127 0.327
48.9232 0.286
48.9337 0.306
48.9442 0.276
48.9547 0.439
48.9653 0.408
48.9758 0.408
48.9863 0.286
48.9968 0.480
49.0074 0.500
49.0179 0.439
49.0284 0.490
49.0389 0.562
49.0495 0.449
49.0600 0.572
49.0705 0.572
49.0810 0.654
49.0915 0.715
49.1021 0.756
49.1126 0.531
49.1231 0.674
49.1336 0.817
49.1442 0.776
49.1547 0.837
49.1652 0.950
49.1757 1.001
49.1862 0.888
49.1968 1.093
49.2073 1.266
49.2178 1.430
49.2283 1.358
49.2389 1.389
49.2494 1.869
49.2599 1.869
49.2704 1.828
49.2810 1.716
49.2915 1.695
49.3020 2.114
49.3125 1.726
49.3230 1.879
49.3336 1.940
49.3441 1.920
49.3546 1.726
49.3651 1.430
49.3757 1.471
49.3862 1.409
49.3967 1.501
49.4072 1.174
49.4177 1.174
49.4283 1.358
49.4388 1.297
49.4493 1.021
49.4598 0.868
49.4704 0.980
49.4809 0.868
49.4914 0.817
49.5019 0.776
49.5124 0.776
49.5230 0.735
49.5335 0.766
49.5440 0.623
49.5545 0.643
49.5651 0.541
49.5756 0.582
49.5861 0.592
49.5966 0.551
49.6072 0.551
49.6177 0.470
49.6282 0.572
49.6387 0.582
49.6492 0.623
49.6598 0.541
49.6703 0.490
49.6808 0.398
49.6913 0.449
49.7019 0.378
49.7124 0.449
49.7229 0.388
49.7334 0.419
49.7439 0.357
49.7545 0.460
49.7650 0.531
49.7755 0.470
49.7860 0.531
49.7966 0.388
49.8071 0.327
49.8176 0.368
49.8281 0.460
49.8386 0.388
49.8492 0.276
49.8597 0.408
49.8702 0.235
49.8807 0.511
49.8913 0.266
49.9018 0.347
49.9123 0.368
49.9228 0.378
49.9334 0.419
49.9439 0.490
49.9544 0.347
49.9649 0.490
49.9754 0.470
49.9860 0.490
49.9965 0.562
50.0070 0.592
50.0175 0.490
50.0281 0.419
50.0386 0.664
50.0491 0.490
50.0596 0.490
50.0701 0.797
50.0807 0.827
50.0912 0.654
50.1017 0.705
50.1122 0.654
50.1228 0.929
50.1333 0.766
50.1438 0.980
50.1543 0.940
50.1649 1.001
50.1754 1.062
50.1859 0.899
50.1964 0.868
50.2069 1.021
50.2175 0.940
50.2280 0.919
50.2385 1.093
50.2490 1.134
50.2596 1.389
50.2701 1.256
50.2806 1.246
50.2911 1.297
50.3016 1.522
50.3122 1.685
50.3227 1.522
50.3332 1.583
50.3437 1.910
50.3543 1.828
50.3648 1.675
50.3753 1.910
50.3858 2.298
50.3963 2.012
50.4069 2.349
50.4174 1.746
50.4279 2.042
50.4384 2.196
50.4490 2.073
50.4595 2.124
50.4700 1.848
50.4805 1.930
50.4911 1.726
50.5016 2.185
50.5121 2.042
50.5226 1.848
50.5331 1.889
50.5437 1.808
50.5542 1.889
50.5647 1.685
50.5752 1.797
50.5858 1.716
50.5963 1.695
50.6068 1.767
50.6173 1.532
50.6278 1.614
50.6384 1.583
50.6489 1.399
50.6594 1.583
50.6699 1.266
50.6805 1.420
50.6910 1.225
50.7015 1.328
50.7120 1.277
50.7225 0.878
50.7331 1.093
50.7436 1.031
50.7541 0.899
50.7646 0.888
50.7752 0.786
50.7857 0.797
50.7962 0.684
50.8067 0.654
50.8173 0.531
50.8278 0.541
50.8383 0.429
50.8488 0.551
50.8593 0.684
50.8699 0.480
50.8804 0.541
50.8909 0.255
50.9014 0.388
50.9120 0.296
50.9225 0.429
50.9330 0.460
50.9435 0.327
50.9540 0.388
50.9646 0.317
50.9751 0.317
50.9856 0.296
50.9961 0.347
51.0067 0.296
51.0172 0.317
51.0277 0.296
51.0382 0.357
51.0488 0.255
51.0593 0.327
51.0698 0.327
51.0803 0.368
51.0908 0.266
51.1014 0.245
51.1119 0.245
51.1224 0.276
51.1329 0.306
51.1435 0.286
51.1540 0.133
51.1645 0.194
51.1750 0.204
51.1855 0.245
51.1961 0.194
51.2066 0.174
51.2171 0.204
51.2276 0.225
51.2382 0.194
51.2487 0.245
51.2592 0.214
51.2697 0.255
51.2802 0.276
51.2908 0.194
51.3013 0.245
51.3118 0.235
51.3223 0.225
51.3329 0.378
51.3434 0.214
51.3539 0.306
51.3644 0.204
51.3750 0.163
51.3855 0.266
51.3960 0.255
51.4065 0.204
51.4170 0.204
51.4276 0.245
51.4381 0.153
51.4486 0.133
51.4591 0.153
51.4697 0.327
51.4802 0.214
51.4907 0.245
51.5012 0.266
51.5117 0.194
51.5223 0.204
51.5328 0.194
51.5433 0.204
51.5538 0.123
51.5644 0.204
51.5749 0.245
51.5854 0.204
51.5959 0.163
51.6064 0.194
51.6170 0.306
51.6275 0.286
51.6380 0.255
51.6485 0.255
51.6591 0.266
51.6696 0.266
51.6801 0.225
51.6906 0.225
51.7012 0.225
51.7117 0.276
51.7222 0.296
51.7327 0.245
51.7432 0.194
51.7538 0.245
51.7643 0.296
51.7748 0.255
51.7853 0.317
51.7959 0.317
51.8064 0.204
51.8169 0.296
51.8274 0.296
51.8379 0.225
51.8485 0.214
51.8590 0.143
51.8695 0.306
51.8800 0.357
51.8906 0.368
51.9011 0.327
51.9116 0.255
51.9221 0.286
51.9327 0.266
51.9432 0.327
51.9537 0.245
51.9642 0.276
51.9747 0.327
51.9853 0.337
51.9958 0.408
52.0063 0.286
52.0168 0.337
52.0274 0.317
52.0379 0.480
52.0484 0.378
52.0589 0.439
52.0694 0.419
52.0800 0.245
52.0905 0.317
52.1010 0.327
52.1115 0.327
52.1221 0.470
52.1326 0.368
52.1431 0.460
52.1536 0.439
52.1641 0.419
52.1747 0.480
52.1852 0.439
52.1957 0.470
52.2062 0.551
52.2168 0.674
52.2273 0.521
52.2378 0.735
52.2483 0.715
52.2589 0.807
52.2694 0.858
52.2799 0.725
52.2904 0.694
52.3009 0.827
52.3115 1.072
52.3220 1.134
52.3325 1.062
52.3430 1.072
52.3536 1.389
52.3641 1.236
52.3746 1.307
52.3851 1.491
52.3956 1.818
52.4062 1.716
52.4167 1.848
52.4272 2.155
52.4377 2.410
52.4483 2.390
52.4588 2.717
52.4693 2.717
52.4798 3.135
52.4904 3.401
52.5009 3.768
52.5114 3.533
52.5219 4.218
52.5324 4.371
52.5430 4.728
52.5535 4.647
52.5640 4.892
52.5745 4.800
52.5851 5.086
52.5956 4.922
52.6061 5.178
52.6166 5.310
52.6271 4.892
52.6377 5.035
52.6482 4.984
52.6587 4.616
52.6692 4.585
52.6798 4.514
52.6903 4.504
52.7008 4.279
52.7113 3.932
52.7218 3.503
52.7324 3.452
52.7429 3.738
52.7534 3.370
52.7639 3.064
52.7745 2.747
52.7850 2.859
52.7955 2.778
52.8060 2.594
52.8166 2.339
52.8271 2.298
52.8376 1.869
52.8481 2.124
52.8586 2.206
52.8692 2.012
52.8797 1.838
52.8902 1.726
52.9007 1.787
52.9113 1.542
52.9218 1.430
52.9323 1.409
52.9428 1.368
52.9533 1.338
52.9639 1.031
52.9744 1.236
52.9849 1.236
52.9954 0.919
53.0060 0.980
53.0165 0.940
53.0270 0.868
53.0375 0.837
53.0480 0.807
53.0586 0.694
53.0691 0.511
53.0796 0.735
53.0901 0.603
53.1007 0.735
53.1112 0.797
53.1217 0.582
53.1322 0.735
53.1428 0.490
53.1533 0.705
53.1638 0.562
53.1743 0.613
53.1848 0.582
53.1954 0.623
53.2059 0.603
53.2164 0.562
53.2269 0.592
53.2375 0.735
53.2480 0.572
53.2585 0.470
53.2690 0.490
53.2795 0.419
53.2901 0.460
53.3006 0.408
53.3111 0.562
53.3216 0.480
53.3322 0.347
53.3427 0.347
53.3532 0.368
53.3637 0.378
53.3743 0.368
53.3848 0.408
53.3953 0.368
53.4058 0.225
53.4163 0.245
53.4269 0.388
53.4374 0.255
53.4479 0.357
53.4584 0.204
53.4690 0.266
53.4795 0.245
53.4900 0.245
53.5005 0.337
53.5110 0.225
53.5216 0.296
53.5321 0.245
53.5426 0.266
53.5531 0.204
53.5637 0.296
53.5742 0.225
53.5847 0.204
53.5952 0.306
53.6057 0.163
53.6163 0.163
53.6268 0.255
53.6373 0.235
53.6478 0.174
53.6584 0.235
53.6689 0.255
53.6794 0.194
53.6899 0.184
53.7005 0.317
53.7110 0.245
53.7215 0.276
53.7320 0.255
53.7425 0.204
53.7531 0.276
53.7636 0.153
53.7741 0.204
53.7846 0.306
53.7952 0.174
53.8057 0.225
53.8162 0.204
53.8267 0.225
53.8372 0.153
53.8478 0.194
53.8583 0.214
53.8688 0.174
53.8793 0.337
53.8899 0.163
53.9004 0.255
53.9109 0.204
53.9214 0.174
53.9319 0.184
53.9425 0.317
53.9530 0.204
53.9635 0.194
53.9740 0.225
53.9846 0.174
53.9951 0.163
54.0056 0.266
54.0161 0.143
54.0267 0.255
54.0372 0.214
54.0477 0.184
54.0582 0.204
54.0687 0.194
54.0793 0.194
54.0898 0.214
54.1003 0.184
54.1108 0.204
54.1214 0.204
54.1319 0.266
54.1424 0.266
54.1529 0.163
54.1634 0.163
54.1740 0.276
54.1845 0.286
54.1950 0.286
54.2055 0.296
54.2161 0.245
54.2266 0.225
54.2371 0.306
54.2476 0.204
54.2582 0.235
54.2687 0.266
54.2792 0.194
54.2897 0.337
54.3002 0.163
54.3108 0.317
54.3213 0.194
54.3318 0.184
54.3423 0.255
54.3529 0.235
54.3634 0.255
54.3739 0.266
54.3844 0.327
54.3949 0.204
54.4055 0.214
54.4160 0.276
54.4265 0.225
54.4370 0.368
54.4476 0.317
54.4581 0.276
54.4686 0.317
54.4791 0.266
54.4896 0.286
54.5002 0.245
54.5107 0.296
54.5212 0.214
54.5317 0.327
54.5423 0.398
54.5528 0.337
54.5633 0.296
54.5738 0.266
54.5844 0.337
54.5949 0.286
54.6054 0.255
54.6159 0.337
54.6264 0.255
54.6370 0.327
54.6475 0.378
54.6580 0.306
54.6685 0.398
54.6791 0.511
54.6896 0.337
54.7001 0.470
54.7106 0.408
54.7211 0.470
54.7317 0.408
54.7422 0.500
54.7527 0.511
54.7632 0.398
54.7738 0.398
54.7843 0.582
54.7948 0.633
54.8053 0.694
54.8158 0.684
54.8264 0.766
54.8369 0.756
54.8474 0.899
54.8579 1.093
54.8685 0.980
54.8790 0.980
54.8895 1.103
54.9000 1.113
54.9106 1.563
54.9211 1.460
54.9316 1.511
54.9421 1.287
54.9526 1.695
54.9632 1.848
54.9737 2.155
54.9842 2.063
54.9947 1.991
55.0053 2.410
55.0158 2.226
55.0263 2.349
55.0368 2.328
55.0473 2.288
55.0579 2.145
55.0684 2.053
55.0789 2.277
55.0894 2.339
55.1000 1.848
55.1105 1.848
55.1210 1.705
55.1315 1.644
55.1421 1.440
55.1526 1.532
55.1631 1.348
55.1736 1.297
55.1841 1.103
55.1947 1.277
55.2052 1.409
55.2157 1.052
55.2262 1.225
55.2368 1.134
55.2473 1.123
55.2578 1.011
55.2683 1.042
55.2788 0.858
55.2894 1.042
55.2999 1.021
55.3104 1.185
55.3209 0.991
55.3315 1.113
55.3420 0.960
55.3525 1.072
55.3630 1.205
55.3735 0.960
55.3841 1.491
55.3946 1.297
55.4051 1.297
55.4156 1.511
55.4262 1.757
55.4367 1.736
55.4472 2.002
55.4577 1.920
55.4683 2.196
55.4788 2.379
55.4893 2.247
55.4998 2.890
55.5103 2.574
55.5209 2.972
55.5314 3.196
55.5419 2.727
55.5524 3.135
55.5630 2.849
55.5735 2.737
55.5840 2.676
55.5945 2.574
55.6050 2.563
55.6156 2.400
55.6261 2.094
55.6366 2.155
55.6471 1.879
55.6577 1.808
55.6682 1.787
55.6787 1.491
55.6892 1.460
55.6998 1.399
55.7103 1.287
55.7208 1.083
55.7313 0.950
55.7418 1.052
55.7524 0.909
55.7629 0.858
55.7734 0.786
55.7839 0.817
55.7945 0.725
55.8050 0.572
55.8155 0.603
55.8260 0.725
55.8365 0.551
55.8471 0.572
55.8576 0.694
55.8681 0.470
55.8786 0.551
55.8892 0.439
55.8997 0.572
55.9102 0.582
55.9207 0.511
55.9312 0.449
55.9418 0.429
55.9523 0.357
55.9628 0.347
55.9733 0.357
55.9839 0.368
55.9944 0.419
56.0049 0.480
56.0154 0.378
56.0260 0.460
56.0365 0.327
56.0470 0.276
56.0575 0.306
56.0680 0.296
56.0786 0.317
56.0891 0.439
56.0996 0.419
56.1101 0.337
56.1207 0.378
56.1312 0.317
56.1417 0.408
56.1522 0.255
56.1627 0.317
56.1733 0.357
56.1838 0.357
56.1943 0.347
56.2048 0.225
56.2154 0.480
56.2259 0.419
56.2364 0.419
56.2469 0.357
56.2574 0.470
56.2680 0.357
56.2785 0.429
56.2890 0.439
56.2995 0.347
56.3101 0.408
56.3206 0.337
56.3311 0.613
56.3416 0.398
56.3522 0.480
56.3627 0.470
56.3732 0.592
56.3837 0.551
56.3942 0.551
56.4048 0.603
56.4153 0.674
56.4258 0.541
56.4363 0.582
56.4469 0.694
56.4574 0.562
56.4679 0.878
56.4784 0.827
56.4889 0.940
56.4995 0.878
56.5100 1.062
56.5205 0.929
56.5310 0.909
56.5416 1.134
56.5521 1.307
56.5626 1.103
56.5731 1.583
56.5837 1.358
56.5942 1.522
56.6047 1.409
56.6152 1.695
56.6257 1.705
56.6363 1.930
56.6468 2.206
56.6573 1.889
56.6678 2.308
56.6784 2.328
56.6889 2.359
56.6994 2.318
56.7099 2.492
56.7204 2.492
56.7310 2.992
56.7415 2.829
56.7520 2.635
56.7625 2.471
56.7731 2.788
56.7836 2.574
56.7941 2.665
56.8046 2.635
56.8151 2.349
56.8257 2.737
56.8362 2.308
56.8467 2.257
56.8572 1.991
56.8678 1.910
56.8783 1.971
56.8888 1.818
56.8993 1.552
56.9099 1.593
56.9204 1.491
56.9309 1.501
56.9414 1.399
56.9519 1.113
56.9625 1.266
56.9730 1.062
56.9835 1.001
56.9940 0.991
57.0046 0.899
57.0151 0.827
57.0256 0.756
57.0361 0.756
57.0466 0.694
57.0572 0.776
57.0677 0.705
57.0782 0.797
57.0887 0.664
57.0993 0.500
57.1098 0.551
57.1203 0.562
57.1308 0.613
57.1413 0.592
57.1519 0.306
57.1624 0.603
57.1729 0.490
57.1834 0.470
57.1940 0.429
57.2045 0.327
57.2150 0.378
57.2255 0.449
57.2361 0.419
57.2466 0.419
57.2571 0.419
57.2676 0.408
57.2781 0.408
57.2887 0.368
57.2992 0.306
57.3097 0.439
57.3202 0.306
57.3308 0.225
57.3413 0.357
57.3518 0.429
57.3623 0.357
57.3728 0.306
57.3834 0.317
57.3939 0.337
57.4044 0.429
57.4149 0.286
57.4255 0.347
57.4360 0.296
57.4465 0.317
57.4570 0.337
57.4676 0.429
57.4781 0.357
57.4886 0.470
57.4991 0.470
57.5096 0.378
57.5202 0.551
57.5307 0.470
57.5412 0.470
57.5517 0.449
57.5623 0.460
57.5728 0.592
57.5833 0.572
57.5938 0.613
57.6043 0.490
57.6149 0.582
57.6254 0.500
57.6359 0.664
57.6464 0.439
57.6570 0.439
57.6675 0.511
57.6780 0.531
57.6885 0.572
57.6990 0.357
57.7096 0.521
57.7201 0.541
57.7306 0.470
57.7411 0.490
57.7517 0.286
57.7622 0.439
57.7727 0.337
57.7832 0.429
57.7938 0.357
57.8043 0.286
57.8148 0.449
57.8253 0.296
57.8358 0.296
57.8464 0.378
57.8569 0.408
57.8674 0.347
57.8779 0.276
57.8885 0.337
57.8990 0.337
57.9095 0.408
57.9200 0.347
57.9305 0.327
57.9411 0.337
57.9516 0.378
57.9621 0.357
57.9726 0.480
57.9832 0.337
57.9937 0.317
58.0042 0.378
58.0147 0.317
58.0252 0.296
58.0358 0.449
58.0463 0.460
58.0568 0.490
58.0673 0.429
58.0779 0.419
58.0884 0.531
58.0989 0.490
58.1094 0.408
58.1200 0.490
58.1305 0.613
58.1410 0.664
58.1515 0.735
58.1620 0.674
58.1726 0.643
58.1831 0.684
58.1936 0.888
58.2041 0.756
58.2147 0.899
58.2252 0.715
58.2357 0.909
58.2462 1.021
58.2567 0.950
58.2673 1.031
58.2778 1.123
58.2883 1.287
58.2988 1.042
58.3094 1.287
58.3199 1.501
58.3304 1.246
58.3409 1.440
58.3515 1.542
58.3620 1.583
58.3725 1.358
58.3830 1.746
58.3935 1.603
58.4041 1.736
58.4146 1.338
58.4251 1.440
58.4356 1.420
58.4462 1.532
58.4567 1.328
58.4672 1.307
58.4777 1.450
58.4882 1.215
58.4988 1.154
58.5093 1.164
58.5198 1.164
58.5303 1.052
58.5409 0.888
58.5514 0.858
58.5619 0.786
58.5724 0.715
58.5829 0.766
58.5935 0.623
58.6040 0.582
58.6145 0.654
58.6250 0.582
58.6356 0.541
58.6461 0.562
58.6566 0.480
58.6671 0.531
58.6777 0.490
58.6882 0.347
58.6987 0.419
58.7092 0.317
58.7197 0.347
58.7303 0.388
58.7408 0.378
58.7513 0.204
58.7618 0.378
58.7724 0.317
58.7829 0.368
58.7934 0.266
58.8039 0.368
58.8144 0.449
58.8250 0.296
58.8355 0.245
58.8460 0.214
58.8565 0.255
58.8671 0.194
58.8776 0.276
58.8881 0.245
58.8986 0.204
58.9091 0.266
58.9197 0.286
58.9302 0.194
58.9407 0.225
58.9512 0.204
58.9618 0.296
58.9723 0.204
58.9828 0.184
58.9933 0.184
59.0039 0.225
59.0144 0.143
59.0249 0.337
59.0354 0.102
59.0459 0.194
59.0565 0.143
59.0670 0.214
59.0775 0.286
59.0880 0.255
59.0986 0.235
59.1091 0.184
59.1196 0.194
59.1301 0.184
59.1406 0.194
59.1512 0.235
59.1617 0.266
59.1722 0.174
59.1827 0.245
59.1933 0.194
59.2038 0.163
59.2143 0.286
59.2248 0.214
59.2354 0.286
59.2459 0.235
59.2564 0.133
59.2669 0.245
59.2774 0.317
59.2880 0.204
59.2985 0.184
59.3090 0.378
59.3195 0.225
59.3301 0.266
59.3406 0.276
59.3511 0.266
59.3616 0.245
59.3721 0.174
59.3827 0.194
59.3932 0.245
59.4037 0.235
59.4142 0.194
59.4248 0.214
59.4353 0.214
59.4458 0.235
59.4563 0.112
59.4668 0.112
59.4774 0.163
59.4879 0.214
59.4984 0.204
59.5089 0.153
59.5195 0.184
59.5300 0.174
59.5405 0.245
59.5510 0.184
59.5616 0.266
59.5721 0.235
59.5826 0.235
59.5931 0.214
59.6036 0.214
59.6142 0.225
59.6247 0.194
59.6352 0.184
59.6457 0.225
59.6563 0.123
59.6668 0.214
59.6773 0.255
59.6878 0.163
59.6983 0.184
59.7089 0.276
59.7194 0.255
59.7299 0.245
59.7404 0.306
59.7510 0.225
59.7615 0.194
59.7720 0.204
59.7825 0.327
59.7931 0.235
59.8036 0.255
59.8141 0.317
59.8246 0.245
59.8351 0.296
59.8457 0.235
59.8562 0.214
59.8667 0.194
59.8772 0.214
59.8878 0.214
59.8983 0.204
59.9088 0.214
59.9193 0.204
59.9298 0.184
59.9404 0.123
59.9509 0.214
59.9614 0.153
59.9719 0.184
59.9825 0.163
59.9930 0.174
60.0035 0.225
60.0140 0.204
60.0245 0.123
60.0351 0.225
60.0456 0.184
60.0561 0.143
60.0666 0.163
60.0772 0.153
60.0877 0.184
60.0982 0.163
60.1087 0.143
60.1193 0.174
60.1298 0.184
60.1403 0.153
60.1508 0.143
60.1613 0.153
60.1719 0.112
60.1824 0.174
60.1929 0.143
60.2034 0.204
60.2140 0.133
60.2245 0.317
60.2350 0.214
60.2455 0.153
60.2560 0.163
60.2666 0.112
60.2771 0.153
60.2876 0.112
60.2981 0.174
60.3087 0.163
60.3192 0.143
60.3297 0.194
60.3402 0.225
60.3507 0.204
60.3613 0.174
60.3718 0.133
60.3823 0.133
60.3928 0.174
60.4034 0.245
60.4139 0.133
60.4244 0.276
60.4349 0.163
60.4455 0.204
60.4560 0.123
60.4665 0.153
60.4770 0.184
60.4875 0.163
60.4981 0.204
60.5086 0.163
60.5191 0.184
60.5296 0.204
60.5402 0.153
60.5507 0.255
60.5612 0.163
60.5717 0.112
60.5822 0.317
60.5928 0.184
60.6033 0.255
60.6138 0.174
60.6243 0.194
60.6349 0.204
60.6454 0.153
60.6559 0.225
60.6664 0.194
60.6770 0.235
60.6875 0.133
60.6980 0.225
60.7085 0.133
60.7190 0.174
60.7296 0.163
60.7401 0.143
60.7506 0.276
60.7611 0.235
60.7717 0.174
60.7822 0.163
60.7927 0.255
60.8032 0.214
60.8137 0.276
60.8243 0.225
60.8348 0.194
60.8453 0.163
60.8558 0.276
60.8664 0.153
60.8769 0.133
60.8874 0.184
60.8979 0.204
60.9084 0.255
60.9190 0.204
60.9295 0.184
60.9400 0.163
60.9505 0.184
60.9611 0.306
60.9716 0.286
60.9821 0.327
60.9926 0.194
61.0032 0.214
61.0137 0.266
61.0242 0.235
61.0347 0.306
61.0452 0.214
61.0558 0.337
61.0663 0.357
61.0768 0.317
61.0873 0.235
61.0979 0.163
61.1084 0.286
61.1189 0.143
61.1294 0.276
61.1399 0.286
61.1505 0.378
61.1610 0.419
61.1715 0.194
61.1820 0.378
61.1926 0.276
61.2031 0.276
61.2136 0.337
61.2241 0.184
61.2346 0.337
61.2452 0.419
61.2557 0.286
61.2662 0.276
61.2767 0.368
61.2873 0.296
61.2978 0.419
61.3083 0.347
61.3188 0.378
61.3294 0.419
61.3399 0.388
61.3504 0.388
61.3609 0.480
61.3714 0.664
61.3820 0.480
61.3925 0.490
61.4030 0.521
61.4135 0.562
61.4241 0.582
61.4346 0.603
61.4451 0.603
61.4556 0.623
61.4661 0.694
61.4767 0.633
61.4872 0.664
61.4977 0.725
61.5082 0.735
61.5188 0.694
61.5293 0.858
61.5398 0.766
61.5503 0.848
61.5609 0.980
61.5714 1.093
61.5819 1.144
61.5924 1.123
61.6029 1.328
61.6135 1.236
61.6240 1.399
61.6345 1.430
61.6450 1.471
61.6556 1.460
61.6661 1.716
61.6766 1.624
61.6871 1.859
61.6976 1.695
61.7082 2.165
61.7187 2.206
61.7292 2.237
61.7397 2.349
61.7503 2.594
61.7608 2.778
61.7713 3.023
61.7818 2.870
61.7923 3.166
61.8029 2.788
61.8134 2.788
61.8239 3.299
61.8344 3.411
61.8450 3.431
61.8555 3.084
61.8660 3.462
61.8765 3.227
61.8871 3.288
61.8976 3.462
61.9081 3.533
61.9186 3.278
61.9291 3.329
61.9397 3.115
61.9502 3.227
61.9607 3.309
61.9712 2.676
61.9818 3.401
61.9923 2.768
62.0028 3.288
62.0133 2.829
62.0238 2.706
62.0344 2.737
62.0449 2.839
62.0554 2.798
62.0659 2.900
62.0765 2.441
62.0870 2.798
62.0975 2.359
62.1080 2.676
62.1185 2.584
62.1291 2.594
62.1396 2.686
62.1501 2.829
62.1606 2.400
62.1712 2.604
62.1817 2.584
62.1922 2.625
62.2027 2.625
62.2133 2.543
62.2238 2.369
62.2343 2.165
62.2448 2.114
62.2553 1.930
62.2659 1.869
62.2764 1.889
62.2869 1.736
62.2974 1.685
62.3080 1.808
62.3185 1.695
62.3290 1.481
62.3395 1.277
62.3500 1.123
62.3606 1.185
62.3711 0.970
62.3816 1.001
62.3921 1.011
62.4027 1.001
62.4132 0.909
62.4237 0.694
62.4342 0.878
62.4448 0.684
62.4553 0.786
62.4658 0.899
62.4763 0.705
62.4868 0.694
62.4974 0.592
62.5079 0.419
62.5184 0.613
62.5289 0.572
62.5395 0.746
62.5500 0.572
62.5605 0.551
62.5710 0.470
62.5815 0.408
62.5921 0.357
62.6026 0.388
62.6131 0.408
62.6236 0.347
62.6342 0.368
62.6447 0.449
62.6552 0.449
62.6657 0.347
62.6762 0.317
62.6868 0.368
62.6973 0.368
62.7078 0.276
62.7183 0.255
62.7289 0.337
62.7394 0.225
62.7499 0.245
62.7604 0.255
62.7710 0.388
62.7815 0.317
62.7920 0.296
62.8025 0.337
62.8130 0.306
62.8236 0.368
62.8341 0.276
62.8446 0.255
62.8551 0.225
62.8657 0.184
62.8762 0.276
62.8867 0.266
62.8972 0.225
62.9077 0.184
62.9183 0.214
62.9288 0.225
62.9393 0.276
62.9498 0.286
62.9604 0.225
62.9709 0.143
62.9814 0.245
62.9919 0.153
63.0025 0.153
63.0130 0.286
63.0235 0.194
63.0340 0.214
63.0445 0.255
63.0551 0.174
63.0656 0.296
63.0761 0.204
63.0866 0.214
63.0972 0.204
63.1077 0.194
63.1182 0.204
63.1287 0.153
63.1392 0.143
63.1498 0.255
63.1603 0.204
63.1708 0.245
63.1813 0.143
63.1919 0.163
63.2024 0.153
63.2129 0.225
63.2234 0.133
63.2339 0.204
63.2445 0.214
63.2550 0.266
63.2655 0.174
63.2760 0.194
63.2866 0.163
63.2971 0.225
63.3076 0.163
63.3181 0.204
63.3287 0.225
63.3392 0.194
63.3497 0.082
63.3602 0.225
63.3707 0.235
63.3813 0.235
63.3918 0.235
63.4023 0.194
63.4128 0.204
63.4234 0.143
63.4339 0.153
63.4444 0.266
63.4549 0.174
63.4654 0.153
63.4760 0.174
63.4865 0.214
63.4970 0.163
63.5075 0.163
63.5181 0.245
63.5286 0.235
63.5391 0.225
63.5496 0.245
63.5601 0.225
63.5707 0.276
63.5812 0.184
63.5917 0.123
63.6022 0.214
63.6128 0.317
63.6233 0.214
63.6338 0.255
63.6443 0.245
63.6549 0.214
63.6654 0.276
63.6759 0.306
63.6864 0.266
63.6969 0.214
63.7075 0.286
63.7180 0.194
63.7285 0.235
63.7390 0.317
63.7496 0.245
63.7601 0.276
63.7706 0.245
63.7811 0.327
63.7916 0.337
63.8022 0.419
63.8127 0.245
63.8232 0.327
63.8337 0.214
63.8443 0.276
63.8548 0.368
63.8653 0.388
63.8758 0.398
63.8864 0.327
63.8969 0.449
63.9074 0.429
63.9179 0.296
63.9284 0.500
63.9390 0.408
63.9495 0.470
63.9600 0.480
63.9705 0.429
63.9811 0.603
63.9916 0.408
64.0021 0.490
64.0126 0.572
64.0231 0.572
64.0337 0.562
64.0442 0.633
64.0547 0.541
64.0652 0.531
64.0758 0.603
64.0863 0.541
64.0968 0.480
64.1073 0.408
64.1178 0.582
64.1284 0.521
64.1389 0.449
64.1494 0.449
64.1599 0.562
64.1705 0.357
64.1810 0.419
64.1915 0.388
64.2020 0.327
64.2126 0.429
64.2231 0.255
64.2336 0.286
64.2441 0.317
64.2546 0.317
64.2652 0.174
64.2757 0.276
64.2862 0.214
64.2967 0.266
64.3073 0.296
64.3178 0.214
64.3283 0.225
64.3388 0.286
64.3493 0.225
64.3599 0.255
64.3704 0.235
64.3809 0.235
64.3914 0.235
64.4020 0.194
64.4125 0.276
64.4230 0.174
64.4335 0.368
64.4440 0.245
64.4546 0.296
64.4651 0.276
64.4756 0.214
64.4861 0.143
64.4967 0.266
64.5072 0.184
64.5177 0.225
64.5282 0.317
64.5388 0.214
64.5493 0.245
64.5598 0.194
64.5703 0.245
64.5808 0.214
64.5914 0.296
64.6019 0.296
64.6124 0.306
64.6229 0.184
64.6335 0.143
64.6440 0.317
64.6545 0.235
64.6650 0.357
64.6755 0.286
64.6861 0.266
64.6966 0.296
64.7071 0.337
64.7176 0.225
64.7282 0.204
64.7387 0.276
64.7492 0.174
64.7597 0.276
64.7703 0.174
64.7808 0.368
64.7913 0.255
64.8018 0.204
64.8123 0.204
64.8229 0.306
64.8334 0.184
64.8439 0.266
64.8544 0.214
64.8650 0.266
64.8755 0.266
64.8860 0.245
64.8965 0.276
64.9070 0.235
64.9176 0.163
64.9281 0.153
64.9386 0.153
64.9491 0.163
64.9597 0.204
64.9702 0.214
64.9807 0.153
64.9912 0.214
65.0017 0.143
65.0123 0.174
65.0228 0.204
65.0333 0.204
65.0438 0.204
65.0544 0.163
65.0649 0.153
65.0754 0.266
65.0859 0.194
65.0965 0.214
65.1070 0.214
65.1175 0.184
65.1280 0.235
65.1385 0.245
65.1491 0.184
65.1596 0.174
65.1701 0.266
65.1806 0.266
65.1912 0.266
65.2017 0.276
65.2122 0.153
65.2227 0.276
65.2332 0.163
65.2438 0.225
65.2543 0.112
65.2648 0.194
65.2753 0.235
65.2859 0.255
65.2964 0.194
65.3069 0.214
65.3174 0.235
65.3279 0.266
65.3385 0.225
65.3490 0.276
65.3595 0.204
65.3700 0.204
65.3806 0.235
65.3911 0.204
65.4016 0.225
65.4121 0.317
65.4227 0.204
65.4332 0.306
65.4437 0.235
65.4542 0.174
65.4647 0.245
65.4753 0.347
65.4858 0.276
65.4963 0.296
65.5068 0.306
65.5174 0.327
65.5279 0.235
65.5384 0.204
65.5489 0.255
65.5594 0.317
65.5700 0.266
65.5805 0.245
65.5910 0.266
65.6015 0.306
65.6121 0.388
65.6226 0.214
65.6331 0.266
65.6436 0.286
65.6542 0.235
65.6647 0.276
65.6752 0.347
65.6857 0.255
65.6962 0.245
65.7068 0.306
65.7173 0.306
65.7278 0.296
65.7383 0.296
65.7489 0.347
65.7594 0.266
65.7699 0.255
65.7804 0.398
65.7909 0.276
65.8015 0.286
65.8120 0.286
65.8225 0.429
65.8330 0.317
65.8436 0.317
65.8541 0.408
65.8646 0.317
65.8751 0.470
65.8856 0.500
65.8962 0.388
65.9067 0.408
65.9172 0.398
65.9277 0.398
65.9383 0.460
65.9488 0.429
65.9593 0.490
65.9698 0.500
65.9804 0.541
65.9909 0.521
66.0014 0.460
66.0119 0.490
66.0224 0.480
66.0330 0.521
66.0435 0.500
66.0540 0.408
66.0645 0.643
66.0751 0.490
66.0856 0.551
66.0961 0.654
66.1066 0.470
66.1171 0.551
66.1277 0.643
66.1382 0.500
66.1487 0.460
66.1592 0.460
66.1698 0.531
66.1803 0.521
66.1908 0.572
66.2013 0.797
66.2119 0.408
66.2224 0.511
66.2329 0.562
66.2434 0.592
66.2539 0.582
66.2645 0.756
66.2750 0.643
66.2855 0.878
66.2960 0.807
66.3066 0.909
66.3171 0.715
66.3276 1.052
66.3381 0.970
66.3486 0.929
66.3592 0.940
66.3697 0.899
66.3802 0.980
66.3907 0.991
66.4013 1.134
66.4118 0.909
66.4223 1.062
66.4328 0.980
66.4433 1.021
66.4539 0.991
66.4644 1.083
66.4749 0.929
66.4854 0.858
66.4960 0.858
66.5065 0.766
66.5170 0.776
66.5275 0.674
66.5381 0.674
66.5486 0.562
66.5591 0.807
66.5696 0.654
66.5801 0.572
66.5907 0.592
66.6012 0.521
66.6117 0.449
66.6222 0.429
66.6328 0.419
66.6433 0.531
66.6538 0.449
66.6643 0.347
66.6748 0.347
66.6854 0.317
66.6959 0.398
66.7064 0.511
66.7169 0.388
66.7275 0.337
66.7380 0.266
66.7485 0.296
66.7590 0.266
66.7695 0.245
66.7801 0.368
66.7906 0.347
66.8011 0.276
66.8116 0.276
66.8222 0.245
66.8327 0.255
66.8432 0.337
66.8537 0.296
66.8643 0.235
66.8748 0.317
66.8853 0.245
66.8958 0.296
66.9063 0.204
66.9169 0.245
66.9274 0.398
66.9379 0.194
66.9484 0.225
66.9590 0.286
66.9695 0.296
66.9800 0.204
66.9905 0.296
67.0010 0.235
67.0116 0.194
67.0221 0.225
67.0326 0.347
67.0431 0.235
67.0537 0.276
67.0642 0.347
67.0747 0.317
67.0852 0.306
67.0958 0.368
67.1063 0.327
67.1168 0.266
67.1273 0.276
67.1378 0.327
67.1484 0.347
67.1589 0.306
67.1694 0.419
67.1799 0.388
67.1905 0.419
67.2010 0.490
67.2115 0.398
67.2220 0.419
67.2325 0.368
67.2431 0.439
67.2536 0.449
67.2641 0.368
67.2746 0.551
67.2852 0.511
67.2957 0.582
67.3062 0.613
67.3167 0.551
67.3272 0.541
67.3378 0.531
67.3483 0.531
67.3588 0.582
67.3693 0.756
67.3799 0.674
67.3904 0.705
67.4009 0.776
67.4114 0.756
67.4220 0.715
67.4325 0.827
67.4430 0.776
67.4535 0.664
67.4640 0.684
67.4746 0.929
67.4851 0.756
67.4956 0.848
67.5061 1.031
67.5167 1.011
67.5272 0.991
67.5377 0.868
67.5482 0.817
67.5587 0.756
67.5693 0.786
67.5798 0.807
67.5903 0.929
67.6008 0.858
67.6114 0.674
67.6219 0.715
67.6324 0.603
67.6429 0.613
67.6534 0.582
67.6640 0.521
67.6745 0.643
67.6850 0.705
67.6955 0.541
67.7061 0.613
67.7166 0.521
67.7271 0.531
67.7376 0.521
67.7482 0.408
67.7587 0.500
67.7692 0.398
67.7797 0.306
67.7902 0.460
67.8008 0.439
67.8113 0.378
67.8218 0.357
67.8323 0.388
67.8429 0.266
67.8534 0.460
67.8639 0.327
67.8744 0.378
67.8849 0.378
67.8955 0.255
67.9060 0.388
67.9165 0.286
67.9270 0.327
67.9376 0.306
67.9481 0.337
67.9586 0.306
67.9691 0.214
67.9797 0.276
67.9902 0.317
68.0007 0.408
68.0112 0.317
68.0217 0.449
68.0323 0.306
68.0428 0.449
68.0533 0.337
68.0638 0.460
68.0744 0.296
68.0849 0.368
68.0954 0.480
68.1059 0.419
68.1164 0.439
68.1270 0.317
68.1375 0.480
68.1480 0.419
68.1585 0.398
68.1691 0.429
68.1796 0.460
68.1901 0.439
68.2006 0.378
68.2111 0.408
68.2217 0.337
68.2322 0.398
68.2427 0.398
68.2532 0.511
68.2638 0.388
68.2743 0.266
68.2848 0.470
68.2953 0.398
68.3059 0.460
68.3164 0.429
68.3269 0.470
68.3374 0.460
68.3479 0.521
68.3585 0.419
68.3690 0.378
68.3795 0.511
68.3900 0.378
68.4006 0.439
68.4111 0.368
68.4216 0.388
68.4321 0.347
68.4426 0.255
68.4532 0.337
68.4637 0.388
68.4742 0.357
68.4847 0.286
68.4953 0.357
68.5058 0.347
68.5163 0.296
68.5268 0.255
68.5373 0.255
68.5479 0.296
68.5584 0.255
68.5689 0.204
68.5794 0.266
68.5900 0.286
68.6005 0.225
68.6110 0.296
68.6215 0.327
68.6321 0.276
68.6426 0.225
68.6531 0.194
68.6636 0.225
68.6741 0.214
68.6847 0.214
68.6952 0.266
68.7057 0.235
68.7162 0.214
68.7268 0.347
68.7373 0.317
68.7478 0.306
68.7583 0.194
68.7688 0.255
68.7794 0.184
68.7899 0.255
68.8004 0.163
68.8109 0.225
68.8215 0.174
68.8320 0.153
68.8425 0.194
68.8530 0.184
68.8636 0.153
68.8741 0.214
68.8846 0.245
68.8951 0.276
68.9056 0.225
68.9162 0.204
68.9267 0.184
68.9372 0.061
68.9477 0.204
68.9583 0.235
68.9688 0.255
68.9793 0.225
68.9898 0.143
69.0003 0.163
69.0109 0.255
69.0214 0.255
69.0319 0.204
69.0424 0.123
69.0530 0.235
69.0635 0.214
69.0740 0.245
69.0845 0.214
69.0950 0.225
69.1056 0.184
69.1161 0.255
69.1266 0.194
69.1371 0.296
69.1477 0.174
69.1582 0.235
69.1687 0.235
69.1792 0.235
69.1898 0.194
69.2003 0.327
69.2108 0.194
69.2213 0.327
69.2318 0.245
69.2424 0.306
69.2529 0.266
69.2634 0.194
69.2739 0.327
69.2845 0.388
69.2950 0.398
69.3055 0.327
69.3160 0.378
69.3265 0.490
69.3371 0.368
69.3476 0.357
69.3581 0.460
69.3686 0.357
69.3792 0.470
69.3897 0.429
69.4002 0.521
69.4107 0.531
69.4212 0.470
69.4318 0.398
69.4423 0.541
69.4528 0.470
69.4633 0.521
69.4739 0.470
69.4844 0.664
69.4949 0.541
69.5054 0.317
69.5160 0.460
69.5265 0.541
69.5370 0.378
69.5475 0.562
69.5580 0.480
69.5686 0.429
69.5791 0.439
69.5896 0.429
69.6001 0.368
69.6107 0.337
69.6212 0.347
69.6317 0.470
69.6422 0.460
69.6527 0.408
69.6633 0.582
69.6738 0.429
69.6843 0.368
69.6948 0.347
69.7054 0.429
69.7159 0.419
69.7264 0.327
69.7369 0.429
69.7475 0.408
69.7580 0.306
69.7685 0.368
69.7790 0.368
69.7895 0.368
69.8001 0.378
69.8106 0.429
69.8211 0.398
69.8316 0.286
69.8422 0.368
69.8527 0.378
69.8632 0.408
69.8737 0.439
69.8842 0.439
69.8948 0.378
69.9053 0.408
69.9158 0.439
69.9263 0.541
69.9369 0.419
69.9474 0.531
69.9579 0.613
69.9684 0.551
69.9789 0.449
69.9895 0.694
70.0000 0.572
70.0105 0.613
70.0210 0.705
70.0316 0.797
70.0421 0.684
70.0526 0.756
70.0631 0.909
70.0737 0.848
70.0842 0.940
70.0947 0.858
70.1052 0.807
70.1157 1.236
70.1263 1.277
70.1368 1.225
70.1473 1.052
70.1578 1.225
70.1684 1.113
70.1789 1.430
70.1894 1.450
70.1999 1.358
70.2104 1.317
70.2210 1.358
70.2315 1.297
70.2420 1.358
70.2525 1.307
70.2631 1.317
70.2736 1.420
70.2841 1.297
70.2946 1.113
70.3052 1.256
70.3157 0.878
70.3262 1.052
70.3367 0.848
70.3472 0.980
70.3578 0.919
70.3683 0.776
70.3788 0.725
70.3893 0.837
70.3999 0.848
70.4104 0.684
70.4209 0.786
70.4314 0.715
70.4419 0.766
70.4525 0.705
70.4630 0.562
70.4735 0.551
70.4840 0.449
70.4946 0.613
70.5051 0.521
70.5156 0.449
70.5261 0.531
70.5366 0.460
70.5472 0.623
70.5577 0.541
70.5682 0.439
70.5787 0.398
70.5893 0.317
70.5998 0.378
70.6103 0.439
70.6208 0.368
70.6314 0.398
70.6419 0.419
70.6524 0.306
70.6629 0.408
70.6734 0.327
70.6840 0.245
70.6945 0.317
70.7050 0.337
70.7155 0.306
70.7261 0.317
70.7366 0.255
70.7471 0.266
70.7576 0.337
70.7681 0.286
70.7787 0.225
70.7892 0.327
70.7997 0.245
70.8102 0.214
70.8208 0.255
70.8313 0.266
70.8418 0.286
70.8523 0.194
70.8628 0.174
70.8734 0.153
70.8839 0.296
70.8944 0.174
70.9049 0.194
70.9155 0.194
70.9260 0.245
70.9365 0.296
70.9470 0.153
70.9576 0.163
70.9681 0.245
70.9786 0.204
70.9891 0.214
70.9996 0.133
71.0102 0.204
71.0207 0.214
71.0312 0.174
71.0417 0.204
71.0523 0.112
71.0628 0.214
71.0733 0.255
71.0838 0.235
71.0943 0.245
71.1049 0.204
71.1154 0.255
71.1259 0.214
71.1364 0.296
71.1470 0.286
71.1575 0.347
71.1680 0.214
71.1785 0.235
71.1891 0.204
71.1996 0.378
71.2101 0.235
71.2206 0.347
71.2311 0.368
71.2417 0.276
71.2522 0.296
71.2627 0.327
71.2732 0.317
71.2838 0.317
71.2943 0.245
71.3048 0.368
71.3153 0.388
71.3258 0.368
71.3364 0.327
71.3469 0.449
71.3574 0.460
71.3679 0.337
71.3785 0.613
71.3890 0.378
71.3995 0.408
71.4100 0.419
71.4205 0.419
71.4311 0.388
71.4416 0.470
71.4521 0.460
71.4626 0.531
71.4732 0.531
71.4837 0.490
71.4942 0.500
71.5047 0.480
71.5153 0.490
71.5258 0.551
71.5363 0.521
71.5468 0.541
71.5573 0.511
71.5679 0.490
71.5784 0.429
71.5889 0.480
71.5994 0.531
71.6100 0.449
71.6205 0.582
71.6310 0.449
71.6415 0.419
71.6520 0.398
71.6626 0.347
71.6731 0.449
71.6836 0.490
71.6941 0.368
71.7047 0.500
71.7152 0.480
71.7257 0.429
71.7362 0.306
71.7467 0.378
71.7573 0.470
71.7678 0.408
71.7783 0.419
71.7888 0.429
71.7994 0.347
71.8099 0.357
71.8204 0.439
71.8309 0.460
71.8415 0.572
71.8520 0.500
71.8625 0.531
71.8730 0.460
71.8835 0.541
71.8941 0.572
71.9046 0.541
71.9151 0.684
71.9256 0.521
71.9362 0.551
71.9467 0.613
71.9572 0.531
71.9677 0.705
71.9782 0.531
71.9888 0.797
71.9993 0.643
72.0098 0.511
72.0203 0.725
72.0309 0.613
72.0414 0.654
72.0519 0.684
72.0624 0.756
72.0730 0.623
72.0835 0.776
72.0940 0.664
72.1045 0.786
72.1150 0.715
72.1256 0.756
72.1361 0.715
72.1466 0.613
72.1571 0.684
72.1677 0.715
72.1782 0.837
72.1887 0.827
72.1992 0.991
72.2097 0.807
72.2203 1.031
72.2308 1.031
72.2413 0.878
72.2518 1.083
72.2624 0.970
72.2729 1.164
72.2834 1.134
72.2939 0.991
72.3044 1.113
72.3150 1.266
72.3255 1.113
72.3360 1.062
72.3465 1.225
72.3571 1.307
72.3676 1.123
72.3781 1.185
72.3886 1.307
72.3992 1.205
72.4097 1.225
72.4202 1.348
72.4307 1.093
72.4412 1.031
72.4518 1.225
72.4623 1.297
72.4728 0.950
72.4833 1.083
72.4939 0.950
72.5044 1.062
72.5149 0.858
72.5254 1.103
72.5359 0.807
72.5465 0.980
72.5570 0.950
72.5675 0.991
72.5780 0.766
72.5886 0.817
72.5991 0.735
72.6096 0.643
72.6201 0.603
72.6306 0.735
72.6412 0.746
72.6517 0.582
72.6622 0.572
72.6727 0.582
72.6833 0.500
72.6938 0.460
72.7043 0.470
72.7148 0.449
72.7254 0.337
72.7359 0.429
72.7464 0.408
72.7569 0.419
72.7674 0.296
72.7780 0.317
72.7885 0.286
72.7990 0.388
72.8095 0.460
72.8201 0.388
72.8306 0.296
72.8411 0.419
72.8516 0.255
72.8621 0.357
72.8727 0.337
72.8832 0.347
72.8937 0.266
72.9042 0.235
72.9148 0.368
72.9253 0.214
72.9358 0.306
72.9463 0.255
72.9569 0.276
72.9674 0.255
72.9779 0.235
72.9884 0.306
72.9989 0.296
73.0095 0.225
73.0200 0.204
73.0305 0.245
73.0410 0.214
73.0516 0.204
73.0621 0.357
73.0726 0.174
73.0831 0.368
73.0936 0.276
73.1042 0.204
73.1147 0.184
73.1252 0.266
73.1357 0.174
73.1463 0.245
73.1568 0.276
73.1673 0.286
73.1778 0.317
73.1883 0.266
73.1989 0.245
73.2094 0.266
73.2199 0.184
73.2304 0.266
73.2410 0.235
73.2515 0.286
73.2620 0.255
73.2725 0.286
73.2831 0.214
73.2936 0.296
73.3041 0.286
73.3146 0.235
73.3251 0.327
73.3357 0.255
73.3462 0.245
73.3567 0.357
73.3672 0.317
73.3778 0.347
73.3883 0.276
73.3988 0.296
73.4093 0.439
73.4198 0.378
73.4304 0.296
73.4409 0.368
73.4514 0.317
73.4619 0.276
73.4725 0.500
73.4830 0.347
73.4935 0.327
73.5040 0.480
73.5146 0.398
73.5251 0.500
73.5356 0.480
73.5461 0.460
73.5566 0.572
73.5672 0.449
73.5777 0.613
73.5882 0.480
73.5987 0.255
73.6093 0.500
73.6198 0.572
73.6303 0.460
73.6408 0.429
73.6513 0.419
73.6619 0.419
73.6724 0.388
73.6829 0.286
73.6934 0.357
73.7040 0.408
73.7145 0.317
73.7250 0.266
73.7355 0.419
73.7460 0.378
73.7566 0.347
73.7671 0.266
73.7776 0.347
73.7881 0.347
73.7987 0.214
73.8092 0.368
73.8197 0.266
73.8302 0.306
73.8408 0.214
73.8513 0.368
73.8618 0.317
73.8723 0.153
73.8828 0.225
73.8934 0.225
73.9039 0.357
73.9144 0.266
73.9249 0.357
73.9355 0.327
73.9460 0.214
73.9565 0.296
73.9670 0.245
73.9775 0.306
73.9881 0.286
73.9986 0.317
74.0091 0.357
74.0196 0.266
74.0302 0.245
74.0407 0.235
74.0512 0.306
74.0617 0.245
74.0722 0.255
74.0828 0.429
74.0933 0.276
74.1038 0.327
74.1143 0.174
74.1249 0.296
74.1354 0.276
74.1459 0.225
74.1564 0.347
74.1670 0.460
74.1775 0.439
74.1880 0.429
74.1985 0.388
74.2090 0.408
74.2196 0.582
74.2301 0.460
74.2406 0.419
74.2511 0.521
74.2617 0.480
74.2722 0.449
74.2827 0.562
74.2932 0.562
74.3037 0.562
74.3143 0.654
74.3248 0.715
74.3353 0.848
74.3458 0.613
74.3564 0.776
74.3669 0.858
74.3774 0.807
74.3879 0.848
74.3985 1.062
74.4090 0.919
74.4195 1.042
74.4300 0.960
74.4405 1.062
74.4511 0.991
74.4616 0.797
74.4721 1.103
74.4826 0.868
74.4932 0.858
74.5037 0.899
74.5142 0.786
74.5247 0.735
74.5352 0.827
74.5458 0.786
74.5563 0.776
74.5668 0.613
74.5773 0.623
74.5879 0.613
74.5984 0.654
74.6089 0.551
74.6194 0.633
74.6299 0.521
74.6405 0.541
74.6510 0.562
74.6615 0.551
74.6720 0.337
74.6826 0.439
74.6931 0.439
74.7036 0.500
74.7141 0.480
74.7247 0.245
74.7352 0.317
74.7457 0.368
74.7562 0.357
74.7667 0.306
74.7773 0.347
74.7878 0.337
74.7983 0.317
74.8088 0.368
74.8194 0.347
74.8299 0.296
74.8404 0.276
74.8509 0.317
74.8614 0.245
74.8720 0.266
74.8825 0.225
74.8930 0.296
74.9035 0.204
74.9141 0.306
74.9246 0.245
74.9351 0.337
74.9456 0.347
74.9561 0.317
74.9667 0.214
74.9772 0.398
74.9877 0.286
74.9982 0.245
75.0088 0.317
75.0193 0.225
75.0298 0.378
75.0403 0.368
75.0509 0.266
75.0614 0.317
75.0719 0.306
75.0824 0.408
75.0929 0.337
75.1035 0.327
75.1140 0.276
75.1245 0.317
75.1350 0.317
75.1456 0.337
75.1561 0.398
75.1666 0.408
75.1771 0.276
75.1876 0.368
75.1982 0.306
75.2087 0.286
75.2192 0.398
75.2297 0.306
75.2403 0.337
75.2508 0.378
75.2613 0.368
75.2718 0.235
75.2824 0.225
75.2929 0.347
75.3034 0.378
75.3139 0.378
75.3244 0.266
75.3350 0.337
75.3455 0.327
75.3560 0.347
75.3665 0.153
75.3771 0.255
75.3876 0.378
75.3981 0.306
75.4086 0.306
75.4191 0.286
75.4297 0.225
75.4402 0.245
75.4507 0.347
75.4612 0.408
75.4718 0.266
75.4823 0.347
75.4928 0.276
75.5033 0.347
75.5138 0.306
75.5244 0.276
75.5349 0.245
75.5454 0.429
75.5559 0.245
75.5665 0.296
75.5770 0.368
75.5875 0.286
75.5980 0.388
75.6086 0.276
75.6191 0.357
75.6296 0.317
75.6401 0.419
75.6506 0.337
75.6612 0.511
75.6717 0.337
75.6822 0.368
75.6927 0.327
75.7033 0.368
75.7138 0.327
75.7243 0.408
75.7348 0.347
75.7453 0.368
75.7559 0.337
75.7664 0.480
75.7769 0.368
75.7874 0.388
75.7980 0.449
75.8085 0.460
75.8190 0.449
75.8295 0.419
75.8400 0.398
75.8506 0.317
75.8611 0.460
75.8716 0.347
75.8821 0.449
75.8927 0.347
75.9032 0.357
75.9137 0.347
75.9242 0.460
75.9348 0.419
75.9453 0.388
75.9558 0.286
75.9663 0.306
75.9768 0.245
75.9874 0.357
75.9979 0.347
76.0084 0.317
76.0189 0.368
76.0295 0.398
76.0400 0.357
76.0505 0.449
76.0610 0.266
76.0715 0.357
76.0821 0.388
76.0926 0.317
76.1031 0.286
76.1136 0.398
76.1242 0.327
76.1347 0.439
76.1452 0.429
76.1557 0.419
76.1663 0.347
76.1768 0.357
76.1873 0.337
76.1978 0.347
76.2083 0.398
76.2189 0.306
76.2294 0.378
76.2399 0.276
76.2504 0.439
76.2610 0.266
76.2715 0.204
76.2820 0.214
76.2925 0.317
76.3030 0.357
76.3136 0.225
76.3241 0.337
76.3346 0.276
76.3451 0.306
76.3557 0.245
76.3662 0.225
76.3767 0.123
76.3872 0.194
76.3977 0.255
76.4083 0.225
76.4188 0.235
76.4293 0.255
76.4398 0.306
76.4504 0.194
76.4609 0.255
76.4714 0.286
76.4819 0.347
76.4925 0.184
76.5030 0.214
76.5135 0.174
76.5240 0.245
76.5345 0.194
76.5451 0.286
76.5556 0.245
76.5661 0.184
76.5766 0.245
76.5872 0.194
76.5977 0.133
76.6082 0.163
76.6187 0.245
76.6292 0.225
76.6398 0.133
76.6503 0.225
76.6608 0.184
76.6713 0.194
76.6819 0.204
76.6924 0.225
76.7029 0.112
76.7134 0.194
76.7240 0.143
76.7345 0.245
76.7450 0.174
76.7555 0.133
76.7660 0.184
76.7766 0.123
76.7871 0.092
76.7976 0.123
76.8081 0.194
76.8187 0.225
76.8292 0.153
76.8397 0.123
76.8502 0.153
76.8607 0.102
76.8713 0.123
76.8818 0.153
76.8923 0.153
76.9028 0.092
76.9134 0.245
76.9239 0.174
76.9344 0.184
76.9449 0.194
76.9554 0.163
76.9660 0.235
76.9765 0.214
76.9870 0.143
76.9975 0.214
77.0081 0.214
77.0186 0.255
77.0291 0.153
77.0396 0.174
77.0502 0.184
77.0607 0.123
77.0712 0.225
77.0817 0.143
77.0922 0.204
77.1028 0.102
77.1133 0.235
77.1238 0.194
77.1343 0.204
77.1449 0.276
77.1554 0.174
77.1659 0.214
77.1764 0.184
77.1869 0.184
77.1975 0.204
77.2080 0.184
77.2185 0.337
77.2290 0.194
77.2396 0.255
77.2501 0.163
77.2606 0.357
77.2711 0.245
77.2816 0.276
77.2922 0.204
77.3027 0.225
77.3132 0.317
77.3237 0.245
77.3343 0.194
77.3448 0.266
77.3553 0.204
77.3658 0.245
77.3764 0.214
77.3869 0.286
77.3974 0.296
77.4079 0.204
77.4184 0.306
77.4290 0.255
77.4395 0.306
77.4500 0.347
77.4605 0.337
77.4711 0.337
77.4816 0.317
77.4921 0.306
77.5026 0.306
77.5131 0.470
77.5237 0.449
77.5342 0.419
77.5447 0.235
77.5552 0.306
77.5658 0.449
77.5763 0.419
77.5868 0.439
77.5973 0.439
77.6079 0.439
77.6184 0.439
77.6289 0.480
77.6394 0.490
77.6499 0.460
77.6605 0.429
77.6710 0.562
77.6815 0.480
77.6920 0.562
77.7026 0.613
77.7131 0.490
77.7236 0.572
77.7341 0.531
77.7446 0.500
77.7552 0.572
77.7657 0.633
77.7762 0.643
77.7867 0.572
77.7973 0.541
77.8078 0.633
77.8183 0.725
77.8288 0.797
77.8393 0.613
77.8499 0.684
77.8604 0.725
77.8709 0.633
77.8814 0.623
77.8920 0.592
77.9025 0.746
77.9130 0.715
77.9235 0.950
77.9341 0.756
77.9446 0.643
77.9551 0.919
77.9656 0.797
77.9761 0.735
77.9867 0.858
77.9972 0.511
78.0077 0.756
78.0182 0.623
78.0288 0.654
78.0393 0.613
78.0498 0.694
78.0603 0.562
78.0708 0.603
78.0814 0.551
78.0919 0.613
78.1024 0.654
78.1129 0.562
78.1235 0.572
78.1340 0.643
78.1445 0.449
78.1550 0.511
78.1655 0.551
78.1761 0.470
78.1866 0.592
78.1971 0.368
78.2076 0.439
78.2182 0.378
78.2287 0.490
78.2392 0.511
78.2497 0.388
78.2603 0.419
78.2708 0.398
78.2813 0.357
78.2918 0.408
78.3023 0.296
78.3129 0.255
78.3234 0.388
78.3339 0.286
78.3444 0.378
78.3550 0.296
78.3655 0.276
78.3760 0.317
78.3865 0.276
78.3970 0.245
78.4076 0.296
78.4181 0.398
78.4286 0.296
78.4391 0.419
78.4497 0.255
78.4602 0.235
78.4707 0.225
78.4812 0.347
78.4918 0.174
78.5023 0.255
78.5128 0.204
78.5233 0.245
78.5338 0.266
78.5444 0.214
78.5549 0.163
78.5654 0.225
78.5759 0.286
78.5865 0.225
78.5970 0.225
78.6075 0.174
78.6180 0.174
78.6285 0.204
78.6391 0.153
78.6496 0.255
78.6601 0.163
78.6706 0.153
78.6812 0.153
78.6917 0.163
78.7022 0.174
78.7127 0.235
78.7232 0.225
78.7338 0.214
78.7443 0.163
78.7548 0.153
78.7653 0.194
78.7759 0.174
78.7864 0.123
78.7969 0.123
78.8074 0.225
78.8180 0.184
78.8285 0.123
78.8390 0.235
78.8495 0.184
78.8600 0.143
78.8706 0.153
78.8811 0.194
78.8916 0.102
78.9021 0.276
78.9127 0.153
78.9232 0.082
78.9337 0.133
78.9442 0.174
78.9547 0.194
78.9653 0.174
78.9758 0.143
78.9863 0.163
78.9968 0.163
79.0074 0.092
79.0179 0.163
79.0284 0.194
79.0389 0.123
79.0494 0.153
79.0600 0.153
79.0705 0.153
79.0810 0.143
79.0915 0.153
79.1021 0.184
79.1126 0.123
79.1231 0.071
79.1336 0.184
79.1442 0.112
79.1547 0.194
79.1652 0.153
79.1757 0.204
79.1862 0.184
79.1968 0.102
79.2073 0.153
79.2178 0.133
79.2283 0.123
79.2389 0.123
79.2494 0.102
79.2599 0.163
79.2704 0.153
79.2809 0.133
79.2915 0.174
79.3020 0.123
79.3125 0.112
79.3230 0.082
79.3336 0.184
79.3441 0.153
79.3546 0.194
79.3651 0.071
79.3757 0.184
79.3862 0.123
79.3967 0.143
79.4072 0.204
79.4177 0.112
79.4283 0.092
79.4388 0.123
79.4493 0.112
79.4598 0.133
79.4704 0.082
79.4809 0.123
79.4914 0.133
79.5019 0.225
79.5124 0.174
79.5230 0.194
79.5335 0.112
79.5440 0.123
79.5545 0.153
79.5651 0.163
79.5756 0.123
79.5861 0.174
79.5966 0.102
79.6071 0.184
79.6177 0.214
79.6282 0.123
79.6387 0.194
79.6492 0.092
79.6598 0.163
79.6703 0.163
79.6808 0.225
79.6913 0.112
79.7019 0.184
79.7124 0.123
79.7229 0.204
79.7334 0.174
79.7439 0.153
79.7545 0.143
79.7650 0.143
79.7755 0.133
79.7860 0.204
79.7966 0.123
79.8071 0.102
79.8176 0.184
79.8281 0.143
79.8386 0.184
79.8492 0.102
79.8597 0.194
79.8702 0.276
79.8807 0.245
79.8913 0.174
79.9018 0.245
79.9123 0.204
79.9228 0.174
79.9333 0.184
79.9439 0.327
79.9544 0.163
79.9649 0.255
79.9754 0.266
79.9860 0.163
79.9965 0.276
80.0070 0.235
