10.0000 1.052
10.0105 0.950
10.0210 0.746
10.0316 0.919
10.0421 0.960
10.0526 1.021
10.0631 1.083
10.0737 0.980
10.0842 0.848
10.0947 0.858
10.1052 0.929
10.1157 0.837
10.1263 0.837
10.1368 1.031
10.1473 0.735
10.1578 0.786
10.1684 0.970
10.1789 1.042
10.1894 0.827
10.1999 0.827
10.2105 0.899
10.2210 0.858
10.2315 0.756
10.2420 0.756
10.2525 0.868
10.2631 0.827
10.2736 0.909
10.2841 0.878
10.2946 0.868
10.3052 0.888
10.3157 0.786
10.3262 0.827
10.3367 1.062
10.3472 0.837
10.3578 0.960
10.3683 0.746
10.3788 0.797
10.3893 0.960
10.3999 0.837
10.4104 0.858
10.4209 0.786
10.4314 0.868
10.4420 0.888
10.4525 0.960
10.4630 1.001
10.4735 1.011
10.4840 0.674
10.4946 0.970
10.5051 0.919
10.5156 0.878
10.5261 0.786
10.5367 0.888
10.5472 0.858
10.5577 0.837
10.5682 0.868
10.5787 0.970
10.5893 0.797
10.5998 0.858
10.6103 0.827
10.6208 0.684
10.6314 1.001
10.6419 0.909
10.6524 0.776
10.6629 0.899
10.6734 0.848
10.6840 0.817
10.6945 0.756
10.7050 0.899
10.7155 0.919
10.7261 0.725
10.7366 0.735
10.7471 1.011
10.7576 0.807
10.7682 0.868
10.7787 0.786
10.7892 0.878
10.7997 0.746
10.8102 0.756
10.8208 0.929
10.8313 0.919
10.8418 0.827
10.8523 0.746
10.8629 0.919
10.8734 0.776
10.8839 0.878
10.8944 0.837
10.9049 0.746
10.9155 0.786
10.9260 0.786
10.9365 0.827
10.9470 0.848
10.9576 0.643
10.9681 0.878
10.9786 0.776
10.9891 0.888
10.9996 0.654
11.0102 0.715
11.0207 0.694
11.0312 0.888
11.0417 0.766
11.0523 0.868
11.0628 0.848
11.0733 0.572
11.0838 0.909
11.0944 0.766
11.1049 0.776
11.1154 0.766
11.1259 0.878
11.1364 0.684
11.1470 0.786
11.1575 0.827
11.1680 0.858
11.1785 0.674
11.1891 0.715
11.1996 0.705
11.2101 0.725
11.2206 0.715
11.2311 0.868
11.2417 0.715
11.2522 0.562
11.2627 0.940
11.2732 0.878
11.2838 0.807
11.2943 0.837
11.3048 0.766
11.3153 0.766
11.3259 0.735
11.3364 0.705
11.3469 0.756
11.3574 0.705
11.3679 0.776
11.3785 0.694
11.3890 0.766
11.3995 0.735
11.4100 0.746
11.4206 0.715
11.4311 0.541
11.4416 0.715
11.4521 0.715
11.4626 0.766
11.4732 0.725
11.4837 0.888
11.4942 0.746
11.5047 0.623
11.5153 0.766
11.5258 0.960
11.5363 0.541
11.5468 0.817
11.5573 0.786
11.5679 0.776
11.5784 0.827
11.5889 0.797
11.5994 0.705
11.6100 0.572
11.6205 0.899
11.6310 0.705
11.6415 0.756
11.6521 0.756
11.6626 0.705
11.6731 0.746
11.6836 0.592
11.6941 0.684
11.7047 0.786
11.7152 0.827
11.7257 0.756
11.7362 0.868
11.7468 0.878
11.7573 0.766
11.7678 0.766
11.7783 0.766
11.7888 0.827
11.7994 0.551
11.8099 0.643
11.8204 0.756
11.8309 0.797
11.8415 0.623
11.8520 0.705
11.8625 0.623
11.8730 0.705
11.8835 0.786
11.8941 0.797
11.9046 0.725
11.9151 0.623
11.9256 0.613
11.9362 0.837
11.9467 0.664
11.9572 0.633
11.9677 0.797
11.9783 0.664
11.9888 0.684
11.9993 0.592
12.0098 0.664
12.0203 0.786
12.0309 0.715
12.0414 0.848
12.0519 0.694
12.0624 0.786
12.0730 0.684
12.0835 0.735
12.0940 0.705
12.1045 0.603
12.1150 0.613
12.1256 0.603
12.1361 0.572
12.1466 0.735
12.1571 0.735
12.1677 0.786
12.1782 0.603
12.1887 0.654
12.1992 0.827
12.2098 0.654
12.2203 0.633
12.2308 0.735
12.2413 0.643
12.2518 0.705
12.2624 0.664
12.2729 0.766
12.2834 0.766
12.2939 0.684
12.3045 0.715
12.3150 0.705
12.3255 0.664
12.3360 0.725
12.3465 0.797
12.3571 0.694
12.3676 0.797
12.3781 0.664
12.3886 0.592
12.3992 0.684
12.4097 0.551
12.4202 0.756
12.4307 0.991
12.4412 0.674
12.4518 0.797
12.4623 0.643
12.4728 0.746
12.4833 0.837
12.4939 0.694
12.5044 0.694
12.5149 0.562
12.5254 0.684
12.5360 0.643
12.5465 0.684
12.5570 0.654
12.5675 0.715
12.5780 0.613
12.5886 0.684
12.5991 0.654
12.6096 0.654
12.6201 0.613
12.6307 0.705
12.6412 0.664
12.6517 0.633
12.6622 0.674
12.6727 0.643
12.6833 0.592
12.6938 0.756
12.7043 0.633
12.7148 0.664
12.7254 0.643
12.7359 0.551
12.7464 0.623
12.7569 0.715
12.7674 0.613
12.7780 0.531
12.7885 0.684
12.7990 0.684
12.8095 0.817
12.8201 0.684
12.8306 0.797
12.8411 0.817
12.8516 0.705
12.8622 0.725
12.8727 0.674
12.8832 0.694
12.8937 0.684
12.9042 0.725
12.9148 0.705
12.9253 0.756
12.9358 0.705
12.9463 0.674
12.9569 0.786
12.9674 0.613
12.9779 0.776
12.9884 0.735
12.9989 0.603
13.0095 0.592
13.0200 0.715
13.0305 0.551
13.0410 0.633
13.0516 0.756
13.0621 0.776
13.0726 0.705
13.0831 0.562
13.0937 0.541
13.1042 0.613
13.1147 0.674
13.1252 0.705
13.1357 0.592
13.1463 0.603
13.1568 0.623
13.1673 0.664
13.1778 0.582
13.1884 0.746
13.1989 0.694
13.2094 0.572
13.2199 0.776
13.2304 0.623
13.2410 0.592
13.2515 0.592
13.2620 0.551
13.2725 0.592
13.2831 0.735
13.2936 0.572
13.3041 0.551
13.3146 0.654
13.3251 0.603
13.3357 0.633
13.3462 0.643
13.3567 0.551
13.3672 0.460
13.3778 0.603
13.3883 0.654
13.3988 0.664
13.4093 0.705
13.4199 0.654
13.4304 0.592
13.4409 0.603
13.4514 0.603
13.4619 0.694
13.4725 0.582
13.4830 0.643
13.4935 0.500
13.5040 0.613
13.5146 0.664
13.5251 0.449
13.5356 0.511
13.5461 0.582
13.5566 0.480
13.5672 0.694
13.5777 0.541
13.5882 0.592
13.5987 0.643
13.6093 0.643
13.6198 0.551
13.6303 0.725
13.6408 0.674
13.6514 0.572
13.6619 0.572
13.6724 0.531
13.6829 0.623
13.6934 0.633
13.7040 0.623
13.7145 0.623
13.7250 0.531
13.7355 0.592
13.7461 0.654
13.7566 0.694
13.7671 0.592
13.7776 0.643
13.7881 0.766
13.7987 0.511
13.8092 0.531
13.8197 0.531
13.8302 0.531
13.8408 0.633
13.8513 0.674
13.8618 0.725
13.8723 0.776
13.8828 0.562
13.8934 0.541
13.9039 0.460
13.9144 0.674
13.9249 0.551
13.9355 0.633
13.9460 0.531
13.9565 0.572
13.9670 0.521
13.9776 0.572
13.9881 0.643
13.9986 0.562
14.0091 0.735
14.0196 0.490
14.0302 0.460
14.0407 0.562
14.0512 0.613
14.0617 0.623
14.0723 0.480
14.0828 0.654
14.0933 0.429
14.1038 0.562
14.1143 0.562
14.1249 0.470
14.1354 0.694
14.1459 0.603
14.1564 0.541
14.1670 0.643
14.1775 0.654
14.1880 0.643
14.1985 0.572
14.2090 0.500
14.2196 0.562
14.2301 0.623
14.2406 0.582
14.2511 0.623
14.2617 0.643
14.2722 0.541
14.2827 0.654
14.2932 0.439
14.3038 0.603
14.3143 0.541
14.3248 0.603
14.3353 0.511
14.3458 0.623
14.3564 0.572
14.3669 0.633
14.3774 0.613
14.3879 0.674
14.3985 0.623
14.4090 0.592
14.4195 0.643
14.4300 0.623
14.4405 0.511
14.4511 0.623
14.4616 0.664
14.4721 0.592
14.4826 0.429
14.4932 0.664
14.5037 0.521
14.5142 0.603
14.5247 0.592
14.5353 0.654
14.5458 0.643
14.5563 0.480
14.5668 0.603
14.5773 0.674
14.5879 0.460
14.5984 0.449
14.6089 0.490
14.6194 0.664
14.6300 0.664
14.6405 0.715
14.6510 0.490
14.6615 0.735
14.6720 0.511
14.6826 0.582
14.6931 0.511
14.7036 0.490
14.7141 0.500
14.7247 0.654
14.7352 0.643
14.7457 0.603
14.7562 0.603
14.7667 0.511
14.7773 0.480
14.7878 0.684
14.7983 0.613
14.8088 0.603
14.8194 0.500
14.8299 0.490
14.8404 0.582
14.8509 0.654
14.8615 0.582
14.8720 0.654
14.8825 0.633
14.8930 0.592
14.9035 0.500
14.9141 0.705
14.9246 0.531
14.9351 0.531
14.9456 0.633
14.9562 0.623
14.9667 0.705
14.9772 0.582
14.9877 0.439
14.9982 0.572
15.0088 0.460
15.0193 0.654
15.0298 0.480
15.0403 0.500
15.0509 0.541
15.0614 0.623
15.0719 0.511
15.0824 0.521
15.0929 0.562
15.1035 0.511
15.1140 0.582
15.1245 0.674
15.1350 0.429
15.1456 0.633
15.1561 0.500
15.1666 0.603
15.1771 0.623
15.1877 0.500
15.1982 0.490
15.2087 0.562
15.2192 0.551
15.2297 0.521
15.2403 0.654
15.2508 0.613
15.2613 0.541
15.2718 0.551
15.2824 0.541
15.2929 0.480
15.3034 0.643
15.3139 0.541
15.3244 0.613
15.3350 0.511
15.3455 0.439
15.3560 0.419
15.3665 0.531
15.3771 0.674
15.3876 0.582
15.3981 0.500
15.4086 0.347
15.4192 0.562
15.4297 0.572
15.4402 0.460
15.4507 0.643
15.4612 0.470
15.4718 0.500
15.4823 0.439
15.4928 0.531
15.5033 0.521
15.5139 0.439
15.5244 0.429
15.5349 0.460
15.5454 0.551
15.5559 0.776
15.5665 0.541
15.5770 0.521
15.5875 0.500
15.5980 0.521
15.6086 0.541
15.6191 0.582
15.6296 0.551
15.6401 0.551
15.6506 0.500
15.6612 0.582
15.6717 0.582
15.6822 0.674
15.6927 0.572
15.7033 0.562
15.7138 0.470
15.7243 0.500
15.7348 0.562
15.7454 0.480
15.7559 0.521
15.7664 0.490
15.7769 0.613
15.7874 0.449
15.7980 0.572
15.8085 0.429
15.8190 0.694
15.8295 0.449
15.8401 0.449
15.8506 0.531
15.8611 0.562
15.8716 0.551
15.8821 0.592
15.8927 0.480
15.9032 0.521
15.9137 0.511
15.9242 0.500
15.9348 0.562
15.9453 0.500
15.9558 0.480
15.9663 0.408
15.9768 0.408
15.9874 0.276
15.9979 0.490
16.0084 0.582
16.0189 0.592
16.0295 0.429
16.0400 0.398
16.0505 0.684
16.0610 0.429
16.0716 0.511
16.0821 0.541
16.0926 0.521
16.1031 0.490
16.1136 0.521
16.1242 0.449
16.1347 0.592
16.1452 0.623
16.1557 0.511
16.1663 0.562
16.1768 0.633
16.1873 0.460
16.1978 0.531
16.2083 0.551
16.2189 0.562
16.2294 0.521
16.2399 0.551
16.2504 0.419
16.2610 0.674
16.2715 0.470
16.2820 0.480
16.2925 0.582
16.3031 0.541
16.3136 0.500
16.3241 0.592
16.3346 0.582
16.3451 0.429
16.3557 0.460
16.3662 0.439
16.3767 0.480
16.3872 0.511
16.3978 0.541
16.4083 0.572
16.4188 0.429
16.4293 0.572
16.4398 0.613
16.4504 0.562
16.4609 0.541
16.4714 0.541
16.4819 0.480
16.4925 0.592
16.5030 0.449
16.5135 0.562
16.5240 0.541
16.5345 0.500
16.5451 0.429
16.5556 0.470
16.5661 0.511
16.5766 0.511
16.5872 0.470
16.5977 0.664
16.6082 0.541
16.6187 0.429
16.6293 0.551
16.6398 0.449
16.6503 0.531
16.6608 0.643
16.6713 0.603
16.6819 0.460
16.6924 0.725
16.7029 0.531
16.7134 0.511
16.7240 0.582
16.7345 0.582
16.7450 0.460
16.7555 0.592
16.7660 0.623
16.7766 0.654
16.7871 0.480
16.7976 0.562
16.8081 0.480
16.8187 0.511
16.8292 0.582
16.8397 0.664
16.8502 0.562
16.8607 0.603
16.8713 0.592
16.8818 0.694
16.8923 0.582
16.9028 0.654
16.9134 0.551
16.9239 0.674
16.9344 0.674
16.9449 0.797
16.9555 0.705
16.9660 0.603
16.9765 0.919
16.9870 0.797
16.9975 1.031
17.0081 0.817
17.0186 0.868
17.0291 1.083
17.0396 1.399
17.0502 1.501
17.0607 1.654
17.0712 1.675
17.0817 2.124
17.0922 2.114
17.1028 2.798
17.1133 2.788
17.1238 3.564
17.1343 4.013
17.1449 4.228
17.1554 4.943
17.1659 5.811
17.1764 6.383
17.1870 6.873
17.1975 6.679
17.2080 7.567
17.2185 7.608
17.2290 7.333
17.2396 7.322
17.2501 7.333
17.2606 5.801
17.2711 5.944
17.2817 5.147
17.2922 4.769
17.3027 4.299
17.3132 3.442
17.3237 3.258
17.3343 2.614
17.3448 1.981
17.3553 1.900
17.3658 1.471
17.3764 1.624
17.3869 1.215
17.3974 1.185
17.4079 0.919
17.4184 1.011
17.4290 0.929
17.4395 0.929
17.4500 0.786
17.4605 0.715
17.4711 0.746
17.4816 0.746
17.4921 0.684
17.5026 0.654
17.5132 0.623
17.5237 0.613
17.5342 0.674
17.5447 0.633
17.5552 0.562
17.5658 0.633
17.5763 0.531
17.5868 0.613
17.5973 0.613
17.6079 0.572
17.6184 0.613
17.6289 0.562
17.6394 0.449
17.6499 0.623
17.6605 0.674
17.6710 0.521
17.6815 0.480
17.6920 0.551
17.7026 0.490
17.7131 0.511
17.7236 0.623
17.7341 0.460
17.7447 0.521
17.7552 0.408
17.7657 0.735
17.7762 0.521
17.7867 0.398
17.7973 0.480
17.8078 0.388
17.8183 0.521
17.8288 0.460
17.8394 0.460
17.8499 0.408
17.8604 0.419
17.8709 0.500
17.8814 0.419
17.8920 0.398
17.9025 0.531
17.9130 0.500
17.9235 0.551
17.9341 0.419
17.9446 0.511
17.9551 0.562
17.9656 0.347
17.9761 0.449
17.9867 0.480
17.9972 0.582
18.0077 0.460
18.0182 0.470
18.0288 0.500
18.0393 0.500
18.0498 0.419
18.0603 0.500
18.0709 0.460
18.0814 0.470
18.0919 0.490
18.1024 0.500
18.1129 0.398
18.1235 0.582
18.1340 0.470
18.1445 0.470
18.1550 0.398
18.1656 0.388
18.1761 0.439
18.1866 0.633
18.1971 0.368
18.2076 0.439
18.2182 0.490
18.2287 0.429
18.2392 0.378
18.2497 0.429
18.2603 0.449
18.2708 0.470
18.2813 0.449
18.2918 0.531
18.3023 0.398
18.3129 0.480
18.3234 0.429
18.3339 0.347
18.3444 0.500
18.3550 0.388
18.3655 0.429
18.3760 0.357
18.3865 0.439
18.3971 0.439
18.4076 0.419
18.4181 0.347
18.4286 0.460
18.4391 0.306
18.4497 0.429
18.4602 0.480
18.4707 0.388
18.4812 0.306
18.4918 0.480
18.5023 0.480
18.5128 0.378
18.5233 0.460
18.5338 0.480
18.5444 0.398
18.5549 0.439
18.5654 0.521
18.5759 0.470
18.5865 0.368
18.5970 0.531
18.6075 0.511
18.6180 0.357
18.6286 0.429
18.6391 0.613
18.6496 0.327
18.6601 0.398
18.6706 0.398
18.6812 0.429
18.6917 0.511
18.7022 0.480
18.7127 0.562
18.7233 0.490
18.7338 0.449
18.7443 0.500
18.7548 0.449
18.7653 0.480
18.7759 0.337
18.7864 0.439
18.7969 0.306
18.8074 0.398
18.8180 0.296
18.8285 0.449
18.8390 0.378
18.8495 0.531
18.8600 0.439
18.8706 0.408
18.8811 0.541
18.8916 0.368
18.9021 0.388
18.9127 0.388
18.9232 0.388
18.9337 0.470
18.9442 0.511
18.9548 0.398
18.9653 0.347
18.9758 0.490
18.9863 0.500
18.9968 0.368
19.0074 0.490
19.0179 0.429
19.0284 0.347
19.0389 0.368
19.0495 0.286
19.0600 0.470
19.0705 0.398
19.0810 0.368
19.0915 0.368
19.1021 0.337
19.1126 0.449
19.1231 0.541
19.1336 0.439
19.1442 0.327
19.1547 0.470
19.1652 0.368
19.1757 0.276
19.1862 0.470
19.1968 0.460
19.2073 0.511
19.2178 0.388
19.2283 0.368
19.2389 0.408
19.2494 0.449
19.2599 0.439
19.2704 0.398
19.2810 0.388
19.2915 0.449
19.3020 0.286
19.3125 0.357
19.3230 0.429
19.3336 0.511
19.3441 0.378
19.3546 0.317
19.3651 0.439
19.3757 0.521
19.3862 0.378
19.3967 0.490
19.4072 0.521
19.4177 0.368
19.4283 0.327
19.4388 0.306
19.4493 0.378
19.4598 0.378
19.4704 0.460
19.4809 0.398
19.4914 0.306
19.5019 0.327
19.5125 0.460
19.5230 0.337
19.5335 0.378
19.5440 0.511
19.5545 0.347
19.5651 0.368
19.5756 0.388
19.5861 0.429
19.5966 0.388
19.6072 0.357
19.6177 0.500
19.6282 0.419
19.6387 0.398
19.6492 0.419
19.6598 0.327
19.6703 0.439
19.6808 0.276
19.6913 0.531
19.7019 0.378
19.7124 0.398
19.7229 0.439
19.7334 0.449
19.7439 0.388
19.7545 0.388
19.7650 0.500
19.7755 0.500
19.7860 0.327
19.7966 0.398
19.8071 0.419
19.8176 0.368
19.8281 0.357
19.8387 0.408
19.8492 0.480
19.8597 0.378
19.8702 0.429
19.8807 0.439
19.8913 0.357
19.9018 0.296
19.9123 0.429
19.9228 0.368
19.9334 0.439
19.9439 0.296
19.9544 0.378
19.9649 0.449
19.9754 0.368
19.9860 0.419
19.9965 0.398
20.0070 0.449
20.0175 0.449
20.0281 0.225
20.0386 0.398
20.0491 0.388
20.0596 0.296
20.0701 0.470
20.0807 0.562
20.0912 0.419
20.1017 0.531
20.1122 0.419
20.1228 0.460
20.1333 0.408
20.1438 0.460
20.1543 0.378
20.1649 0.449
20.1754 0.429
20.1859 0.541
20.1964 0.429
20.2069 0.460
20.2175 0.480
20.2280 0.460
20.2385 0.408
20.2490 0.551
20.2596 0.429
20.2701 0.439
20.2806 0.480
20.2911 0.419
20.3016 0.429
20.3122 0.490
20.3227 0.511
20.3332 0.449
20.3437 0.388
20.3543 0.541
20.3648 0.490
20.3753 0.449
20.3858 0.592
20.3964 0.541
20.4069 0.674
20.4174 0.500
20.4279 0.521
20.4384 0.419
20.4490 0.439
20.4595 0.562
20.4700 0.562
20.4805 0.541
20.4911 0.562
20.5016 0.786
20.5121 0.807
20.5226 0.807
20.5331 0.848
20.5437 0.735
20.5542 0.807
20.5647 0.827
20.5752 0.919
20.5858 1.031
20.5963 1.072
20.6068 1.195
20.6173 1.174
20.6278 1.522
20.6384 1.644
20.6489 1.736
20.6594 2.104
20.6699 2.533
20.6805 2.747
20.6910 3.666
20.7015 3.472
20.7120 4.647
20.7226 4.953
20.7331 6.669
20.7436 7.475
20.7541 8.088
20.7646 9.212
20.7752 10.223
20.7857 11.132
20.7962 12.786
20.8067 12.786
20.8173 13.736
20.8278 13.317
20.8383 12.623
20.8488 12.653
20.8593 11.203
20.8699 10.212
20.8804 8.619
20.8909 7.241
20.9014 6.383
20.9120 5.351
20.9225 4.473
20.9330 3.636
20.9435 3.380
20.9541 2.768
20.9646 2.277
20.9751 2.420
20.9856 1.900
20.9961 1.614
21.0067 1.420
21.0172 1.358
21.0277 1.307
21.0382 1.185
21.0488 0.970
21.0593 0.858
21.0698 0.807
21.0803 0.909
21.0908 0.725
21.1014 0.725
21.1119 0.531
21.1224 0.888
21.1329 0.613
21.1435 0.541
21.1540 0.572
21.1645 0.551
21.1750 0.521
21.1855 0.521
21.1961 0.429
21.2066 0.592
21.2171 0.562
21.2276 0.521
21.2382 0.541
21.2487 0.511
21.2592 0.511
21.2697 0.582
21.2803 0.572
21.2908 0.317
21.3013 0.419
21.3118 0.398
21.3223 0.388
21.3329 0.541
21.3434 0.388
21.3539 0.449
21.3644 0.460
21.3750 0.429
21.3855 0.408
21.3960 0.531
21.4065 0.378
21.4170 0.500
21.4276 0.388
21.4381 0.439
21.4486 0.470
21.4591 0.531
21.4697 0.531
21.4802 0.419
21.4907 0.429
21.5012 0.378
21.5117 0.378
21.5223 0.357
21.5328 0.419
21.5433 0.368
21.5538 0.286
21.5644 0.388
21.5749 0.357
21.5854 0.408
21.5959 0.266
21.6065 0.378
21.6170 0.511
21.6275 0.357
21.6380 0.378
21.6485 0.408
21.6591 0.276
21.6696 0.306
21.6801 0.419
21.6906 0.378
21.7012 0.388
21.7117 0.347
21.7222 0.388
21.7327 0.388
21.7432 0.378
21.7538 0.439
21.7643 0.470
21.7748 0.521
21.7853 0.378
21.7959 0.296
21.8064 0.378
21.8169 0.490
21.8274 0.368
21.8380 0.398
21.8485 0.286
21.8590 0.388
21.8695 0.337
21.8800 0.408
21.8906 0.388
21.9011 0.408
21.9116 0.347
21.9221 0.296
21.9327 0.470
21.9432 0.317
21.9537 0.347
21.9642 0.286
21.9747 0.266
21.9853 0.480
21.9958 0.296
22.0063 0.306
22.0168 0.306
22.0274 0.286
22.0379 0.439
22.0484 0.449
22.0589 0.286
22.0694 0.296
22.0800 0.378
22.0905 0.378
22.1010 0.357
22.1115 0.500
22.1221 0.460
22.1326 0.449
22.1431 0.368
22.1536 0.480
22.1642 0.317
22.1747 0.408
22.1852 0.378
22.1957 0.357
22.2062 0.511
22.2168 0.388
22.2273 0.419
22.2378 0.398
22.2483 0.531
22.2589 0.480
22.2694 0.480
22.2799 0.490
22.2904 0.500
22.3009 0.347
22.3115 0.327
22.3220 0.521
22.3325 0.286
22.3430 0.398
22.3536 0.480
22.3641 0.429
22.3746 0.439
22.3851 0.470
22.3956 0.490
22.4062 0.480
22.4167 0.562
22.4272 0.439
22.4377 0.572
22.4483 0.613
22.4588 0.470
22.4693 0.531
22.4798 0.613
22.4904 0.623
22.5009 0.654
22.5114 0.694
22.5219 0.684
22.5324 0.654
22.5430 0.694
22.5535 0.807
22.5640 0.827
22.5745 0.991
22.5851 1.042
22.5956 1.195
22.6061 1.328
22.6166 1.225
22.6271 1.501
22.6377 1.787
22.6482 1.675
22.6587 1.940
22.6692 2.298
22.6798 2.533
22.6903 2.849
22.7008 2.900
22.7113 3.360
22.7219 3.962
22.7324 4.024
22.7429 4.493
22.7534 4.473
22.7639 4.851
22.7745 4.514
22.7850 4.514
22.7955 4.871
22.8060 4.310
22.8166 4.310
22.8271 3.145
22.8376 3.656
22.8481 2.962
22.8586 2.328
22.8692 2.471
22.8797 2.022
22.8902 1.940
22.9007 1.614
22.9113 1.542
22.9218 1.256
22.9323 1.328
22.9428 1.144
22.9533 0.888
22.9639 0.919
22.9744 0.756
22.9849 0.735
22.9954 0.725
23.0060 0.582
23.0165 0.613
23.0270 0.664
23.0375 0.654
23.0481 0.470
23.0586 0.480
23.0691 0.460
23.0796 0.531
23.0901 0.470
23.1007 0.531
23.1112 0.480
23.1217 0.439
23.1322 0.378
23.1428 0.500
23.1533 0.286
23.1638 0.531
23.1743 0.337
23.1848 0.500
23.1954 0.419
23.2059 0.439
23.2164 0.337
23.2269 0.347
23.2375 0.388
23.2480 0.368
23.2585 0.347
23.2690 0.388
23.2795 0.327
23.2901 0.470
23.3006 0.306
23.3111 0.419
23.3216 0.551
23.3322 0.286
23.3427 0.286
23.3532 0.378
23.3637 0.429
23.3743 0.368
23.3848 0.429
23.3953 0.378
23.4058 0.266
23.4163 0.398
23.4269 0.439
23.4374 0.480
23.4479 0.347
23.4584 0.357
23.4690 0.306
23.4795 0.460
23.4900 0.276
23.5005 0.490
23.5110 0.327
23.5216 0.347
23.5321 0.449
23.5426 0.317
23.5531 0.347
23.5637 0.398
23.5742 0.419
23.5847 0.296
23.5952 0.327
23.6058 0.286
23.6163 0.439
23.6268 0.347
23.6373 0.347
23.6478 0.327
23.6584 0.306
23.6689 0.419
23.6794 0.378
23.6899 0.633
23.7005 0.378
23.7110 0.347
23.7215 0.317
23.7320 0.368
23.7425 0.603
23.7531 0.327
23.7636 0.500
23.7741 0.306
23.7846 0.398
23.7952 0.378
23.8057 0.429
23.8162 0.276
23.8267 0.541
23.8372 0.408
23.8478 0.419
23.8583 0.439
23.8688 0.490
23.8793 0.408
23.8899 0.511
23.9004 0.378
23.9109 0.470
23.9214 0.500
23.9320 0.500
23.9425 0.643
23.9530 0.725
23.9635 0.786
23.9740 0.746
23.9846 0.797
23.9951 0.960
24.0056 1.001
24.0161 1.021
24.0267 1.062
24.0372 1.552
24.0477 1.491
24.0582 1.491
24.0687 1.409
24.0793 1.889
24.0898 1.777
24.1003 1.603
24.1108 2.124
24.1214 1.828
24.1319 1.746
24.1424 1.736
24.1529 1.757
24.1635 1.654
24.1740 1.440
24.1845 1.246
24.1950 0.919
24.2055 1.103
24.2161 0.878
24.2266 0.817
24.2371 0.725
24.2476 0.705
24.2582 0.705
24.2687 0.756
24.2792 0.521
24.2897 0.725
24.3002 0.541
24.3108 0.439
24.3213 0.460
24.3318 0.490
24.3423 0.603
24.3529 0.460
24.3634 0.429
24.3739 0.357
24.3844 0.378
24.3949 0.408
24.4055 0.460
24.4160 0.398
24.4265 0.511
24.4370 0.480
24.4476 0.357
24.4581 0.388
24.4686 0.388
24.4791 0.460
24.4897 0.378
24.5002 0.337
24.5107 0.327
24.5212 0.286
24.5317 0.378
24.5423 0.286
24.5528 0.378
24.5633 0.266
24.5738 0.378
24.5844 0.439
24.5949 0.368
24.6054 0.429
24.6159 0.368
24.6264 0.306
24.6370 0.429
24.6475 0.327
24.6580 0.388
24.6685 0.398
24.6791 0.460
24.6896 0.439
24.7001 0.327
24.7106 0.255
24.7211 0.337
24.7317 0.347
24.7422 0.378
24.7527 0.347
24.7632 0.408
24.7738 0.347
24.7843 0.439
24.7948 0.378
24.8053 0.449
24.8159 0.429
24.8264 0.225
24.8369 0.357
24.8474 0.419
24.8579 0.378
24.8685 0.408
24.8790 0.378
24.8895 0.460
24.9000 0.286
24.9106 0.408
24.9211 0.470
24.9316 0.398
24.9421 0.439
24.9526 0.398
24.9632 0.286
24.9737 0.357
24.9842 0.480
24.9947 0.419
25.0053 0.357
25.0158 0.562
25.0263 0.470
25.0368 0.347
25.0474 0.398
25.0579 0.368
25.0684 0.368
25.0789 0.551
25.0894 0.490
25.1000 0.439
25.1105 0.541
25.1210 0.408
25.1315 0.562
25.1421 0.480
25.1526 0.572
25.1631 0.623
25.1736 0.562
25.1841 0.674
25.1947 0.500
25.2052 0.541
25.2157 0.490
25.2262 0.746
25.2368 0.756
25.2473 0.797
25.2578 0.878
25.2683 0.623
25.2788 0.582
25.2894 0.837
25.2999 0.613
25.3104 0.797
25.3209 0.991
25.3315 0.899
25.3420 0.980
25.3525 1.266
25.3630 1.277
25.3736 1.225
25.3841 1.409
25.3946 1.348
25.4051 1.787
25.4156 2.002
25.4262 1.910
25.4367 2.185
25.4472 2.522
25.4577 2.706
25.4683 3.360
25.4788 3.482
25.4893 4.228
25.4998 4.504
25.5103 4.902
25.5209 5.801
25.5314 6.648
25.5419 8.109
25.5524 8.660
25.5630 9.978
25.5735 11.612
25.5840 13.225
25.5945 13.797
25.6050 14.471
25.6156 15.748
25.6261 15.513
25.6366 16.534
25.6471 15.870
25.6577 14.747
25.6682 14.931
25.6787 14.563
25.6892 13.082
25.6998 11.867
25.7103 10.406
25.7208 9.988
25.7313 9.028
25.7418 7.557
25.7524 7.128
25.7629 5.494
25.7734 4.841
25.7839 4.442
25.7945 3.748
25.8050 3.523
25.8155 3.227
25.8260 2.635
25.8365 2.277
25.8471 2.226
25.8576 2.012
25.8681 1.777
25.8786 1.491
25.8892 1.317
25.8997 1.195
25.9102 1.225
25.9207 1.307
25.9313 0.950
25.9418 0.929
25.9523 0.970
25.9628 0.868
25.9733 0.991
25.9839 0.919
25.9944 0.868
26.0049 0.654
26.0154 0.623
26.0260 0.531
26.0365 0.735
26.0470 0.694
26.0575 0.909
26.0680 0.500
26.0786 0.541
26.0891 0.643
26.0996 0.592
26.1101 0.439
26.1207 0.582
26.1312 0.633
26.1417 0.439
26.1522 0.419
26.1627 0.562
26.1733 0.398
26.1838 0.470
26.1943 0.368
26.2048 0.480
26.2154 0.398
26.2259 0.551
26.2364 0.460
26.2469 0.480
26.2575 0.429
26.2680 0.460
26.2785 0.419
26.2890 0.460
26.2995 0.347
26.3101 0.408
26.3206 0.460
26.3311 0.388
26.3416 0.388
26.3522 0.398
26.3627 0.429
26.3732 0.470
26.3837 0.429
26.3942 0.398
26.4048 0.378
26.4153 0.368
26.4258 0.357
26.4363 0.296
26.4469 0.286
26.4574 0.388
26.4679 0.388
26.4784 0.429
26.4889 0.378
26.4995 0.460
26.5100 0.470
26.5205 0.266
26.5310 0.388
26.5416 0.368
26.5521 0.296
26.5626 0.266
26.5731 0.429
26.5837 0.235
26.5942 0.266
26.6047 0.317
26.6152 0.368
26.6257 0.357
26.6363 0.327
26.6468 0.296
26.6573 0.327
26.6678 0.255
26.6784 0.429
26.6889 0.347
26.6994 0.306
26.7099 0.449
26.7204 0.286
26.7310 0.347
26.7415 0.347
26.7520 0.286
26.7625 0.439
26.7731 0.296
26.7836 0.368
26.7941 0.327
26.8046 0.286
26.8152 0.296
26.8257 0.378
26.8362 0.235
26.8467 0.327
26.8572 0.327
26.8678 0.327
26.8783 0.317
26.8888 0.327
26.8993 0.286
26.9099 0.235
26.9204 0.347
26.9309 0.266
26.9414 0.327
26.9519 0.419
26.9625 0.398
26.9730 0.378
26.9835 0.347
26.9940 0.225
27.0046 0.337
27.0151 0.398
27.0256 0.266
27.0361 0.398
27.0466 0.357
27.0572 0.296
27.0677 0.306
27.0782 0.255
27.0887 0.306
27.0993 0.317
27.1098 0.368
27.1203 0.429
27.1308 0.337
27.1414 0.357
27.1519 0.235
27.1624 0.327
27.1729 0.235
27.1834 0.255
27.1940 0.266
27.2045 0.408
27.2150 0.347
27.2255 0.286
27.2361 0.357
27.2466 0.286
27.2571 0.255
27.2676 0.317
27.2781 0.357
27.2887 0.357
27.2992 0.327
27.3097 0.337
27.3202 0.306
27.3308 0.378
27.3413 0.327
27.3518 0.286
27.3623 0.337
27.3728 0.337
27.3834 0.296
27.3939 0.347
27.4044 0.235
27.4149 0.245
27.4255 0.317
27.4360 0.378
27.4465 0.204
27.4570 0.276
27.4676 0.337
27.4781 0.306
27.4886 0.296
27.4991 0.296
27.5096 0.255
27.5202 0.357
27.5307 0.368
27.5412 0.276
27.5517 0.327
27.5623 0.235
27.5728 0.255
27.5833 0.276
27.5938 0.419
27.6043 0.286
27.6149 0.317
27.6254 0.235
27.6359 0.337
27.6464 0.347
27.6570 0.327
27.6675 0.225
27.6780 0.194
27.6885 0.296
27.6991 0.347
27.7096 0.429
27.7201 0.317
27.7306 0.286
27.7411 0.357
27.7517 0.225
27.7622 0.286
27.7727 0.368
27.7832 0.276
27.7938 0.398
27.8043 0.357
27.8148 0.214
27.8253 0.266
27.8358 0.317
27.8464 0.286
27.8569 0.266
27.8674 0.245
27.8779 0.317
27.8885 0.286
27.8990 0.214
27.9095 0.235
27.9200 0.225
27.9305 0.296
27.9411 0.286
27.9516 0.235
27.9621 0.398
27.9726 0.337
27.9832 0.388
27.9937 0.378
28.0042 0.276
28.0147 0.327
28.0253 0.317
28.0358 0.347
28.0463 0.225
28.0568 0.286
28.0673 0.276
28.0779 0.368
28.0884 0.276
28.0989 0.214
28.1094 0.357
28.1200 0.255
28.1305 0.214
28.1410 0.398
28.1515 0.266
28.1620 0.337
28.1726 0.398
28.1831 0.317
28.1936 0.317
28.2041 0.327
28.2147 0.327
28.2252 0.317
28.2357 0.276
28.2462 0.306
28.2568 0.368
28.2673 0.225
28.2778 0.368
28.2883 0.337
28.2988 0.337
28.3094 0.245
28.3199 0.235
28.3304 0.398
28.3409 0.286
28.3515 0.266
28.3620 0.266
28.3725 0.327
28.3830 0.357
28.3935 0.306
28.4041 0.276
28.4146 0.408
28.4251 0.398
28.4356 0.296
28.4462 0.337
28.4567 0.317
28.4672 0.368
28.4777 0.347
28.4882 0.317
28.4988 0.204
28.5093 0.225
28.5198 0.225
28.5303 0.357
28.5409 0.347
28.5514 0.388
28.5619 0.286
28.5724 0.276
28.5830 0.255
28.5935 0.245
28.6040 0.184
28.6145 0.429
28.6250 0.327
28.6356 0.286
28.6461 0.357
28.6566 0.368
28.6671 0.235
28.6777 0.388
28.6882 0.357
28.6987 0.296
28.7092 0.306
28.7197 0.357
28.7303 0.347
28.7408 0.449
28.7513 0.347
28.7618 0.276
28.7724 0.327
28.7829 0.317
28.7934 0.378
28.8039 0.245
28.8144 0.286
28.8250 0.317
28.8355 0.306
28.8460 0.317
28.8565 0.337
28.8671 0.327
28.8776 0.368
28.8881 0.276
28.8986 0.419
28.9092 0.276
28.9197 0.388
28.9302 0.388
28.9407 0.286
28.9512 0.378
28.9618 0.296
28.9723 0.378
28.9828 0.306
28.9933 0.449
29.0039 0.439
29.0144 0.368
29.0249 0.378
29.0354 0.245
29.0459 0.327
29.0565 0.317
29.0670 0.357
29.0775 0.419
29.0880 0.347
29.0986 0.357
29.1091 0.357
29.1196 0.449
29.1301 0.419
29.1407 0.490
29.1512 0.419
29.1617 0.408
29.1722 0.460
29.1827 0.276
29.1933 0.511
29.2038 0.419
29.2143 0.388
29.2248 0.398
29.2354 0.470
29.2459 0.449
29.2564 0.347
29.2669 0.337
29.2774 0.490
29.2880 0.439
29.2985 0.470
29.3090 0.572
29.3195 0.541
29.3301 0.531
29.3406 0.603
29.3511 0.551
29.3616 0.521
29.3721 0.511
29.3827 0.551
29.3932 0.674
29.4037 0.460
29.4142 0.521
29.4248 0.786
29.4353 0.786
29.4458 0.919
29.4563 0.817
29.4669 0.827
29.4774 0.909
29.4879 0.919
29.4984 1.052
29.5089 1.011
29.5195 1.154
29.5300 1.031
29.5405 1.328
29.5510 1.563
29.5616 1.368
29.5721 1.777
29.5826 1.583
29.5931 2.002
29.6036 2.145
29.6142 2.124
29.6247 2.655
29.6352 2.859
29.6457 2.747
29.6563 4.003
29.6668 4.269
29.6773 5.096
29.6878 4.861
29.6983 6.281
29.7089 6.495
29.7194 7.220
29.7299 8.670
29.7404 8.977
29.7510 9.835
29.7615 10.335
29.7720 11.203
29.7825 12.081
29.7931 12.326
29.8036 13.409
29.8141 13.552
29.8246 13.971
29.8351 13.623
29.8457 12.796
29.8562 12.653
29.8667 12.030
29.8772 11.571
29.8878 10.989
29.8983 9.926
29.9088 9.263
29.9193 7.823
29.9298 7.149
29.9404 6.219
29.9509 6.270
29.9614 4.851
29.9719 4.504
29.9825 4.606
29.9930 4.075
30.0035 3.166
30.0140 2.992
30.0246 2.502
30.0351 2.247
30.0456 2.073
30.0561 1.951
30.0666 1.685
30.0772 1.614
30.0877 1.317
30.0982 1.358
30.1087 1.246
30.1193 1.113
30.1298 0.970
30.1403 0.950
30.1508 0.817
30.1613 0.837
30.1719 0.878
30.1824 0.684
30.1929 0.623
30.2034 0.643
30.2140 0.766
30.2245 0.705
30.2350 0.603
30.2455 0.633
30.2560 0.592
30.2666 0.480
30.2771 0.623
30.2876 0.419
30.2981 0.500
30.3087 0.449
30.3192 0.429
30.3297 0.419
30.3402 0.419
30.3508 0.357
30.3613 0.419
30.3718 0.398
30.3823 0.490
30.3928 0.306
30.4034 0.439
30.4139 0.500
30.4244 0.470
30.4349 0.347
30.4455 0.368
30.4560 0.357
30.4665 0.296
30.4770 0.408
30.4875 0.419
30.4981 0.521
30.5086 0.306
30.5191 0.357
30.5296 0.306
30.5402 0.306
30.5507 0.286
30.5612 0.286
30.5717 0.429
30.5822 0.266
30.5928 0.347
30.6033 0.276
30.6138 0.470
30.6243 0.337
30.6349 0.286
30.6454 0.296
30.6559 0.511
30.6664 0.266
30.6770 0.327
30.6875 0.306
30.6980 0.378
30.7085 0.357
30.7190 0.286
30.7296 0.266
30.7401 0.255
30.7506 0.245
30.7611 0.317
30.7717 0.266
30.7822 0.276
30.7927 0.368
30.8032 0.327
30.8137 0.347
30.8243 0.347
30.8348 0.317
30.8453 0.225
30.8558 0.306
30.8664 0.306
30.8769 0.368
30.8874 0.398
30.8979 0.296
30.9085 0.266
30.9190 0.317
30.9295 0.357
30.9400 0.296
30.9505 0.347
30.9611 0.378
30.9716 0.245
30.9821 0.306
30.9926 0.296
31.0032 0.306
31.0137 0.368
31.0242 0.276
31.0347 0.276
31.0452 0.357
31.0558 0.276
31.0663 0.296
31.0768 0.255
31.0873 0.214
31.0979 0.225
31.1084 0.255
31.1189 0.266
31.1294 0.317
31.1399 0.255
31.1505 0.225
31.1610 0.214
31.1715 0.214
31.1820 0.306
31.1926 0.286
31.2031 0.266
31.2136 0.255
31.2241 0.276
31.2347 0.357
31.2452 0.388
31.2557 0.337
31.2662 0.225
31.2767 0.306
31.2873 0.317
31.2978 0.317
31.3083 0.357
31.3188 0.266
31.3294 0.296
31.3399 0.276
31.3504 0.276
31.3609 0.266
31.3714 0.255
31.3820 0.266
31.3925 0.245
31.4030 0.306
31.4135 0.296
31.4241 0.317
31.4346 0.245
31.4451 0.306
31.4556 0.317
31.4662 0.255
31.4767 0.286
31.4872 0.214
31.4977 0.317
31.5082 0.306
31.5188 0.286
31.5293 0.388
31.5398 0.317
31.5503 0.327
31.5609 0.317
31.5714 0.276
31.5819 0.408
31.5924 0.266
31.6029 0.276
31.6135 0.286
31.6240 0.317
31.6345 0.296
31.6450 0.317
31.6556 0.388
31.6661 0.337
31.6766 0.378
31.6871 0.408
31.6976 0.266
31.7082 0.266
31.7187 0.327
31.7292 0.306
31.7397 0.327
31.7503 0.317
31.7608 0.317
31.7713 0.306
31.7818 0.347
31.7924 0.408
31.8029 0.306
31.8134 0.337
31.8239 0.378
31.8344 0.337
31.8450 0.419
31.8555 0.398
31.8660 0.347
31.8765 0.460
31.8871 0.388
31.8976 0.306
31.9081 0.347
31.9186 0.378
31.9291 0.408
31.9397 0.470
31.9502 0.511
31.9607 0.521
31.9712 0.572
31.9818 0.582
31.9923 0.562
32.0028 0.603
32.0133 0.633
32.0238 0.603
32.0344 0.705
32.0449 0.725
32.0554 0.684
32.0659 0.878
32.0765 1.062
32.0870 0.970
32.0975 1.021
32.1080 1.185
32.1186 1.491
32.1291 1.389
32.1396 1.910
32.1501 2.175
32.1606 2.002
32.1712 2.696
32.1817 2.839
32.1922 3.288
32.2027 4.085
32.2133 4.402
32.2238 4.197
32.2343 5.188
32.2448 5.331
32.2553 5.127
32.2659 6.036
32.2764 6.015
32.2869 5.984
32.2974 6.117
32.3080 5.035
32.3185 5.025
32.3290 5.167
32.3395 4.146
32.3501 3.738
32.3606 3.932
32.3711 3.707
32.3816 2.819
32.3921 2.563
32.4027 2.288
32.4132 2.165
32.4237 1.665
32.4342 1.420
32.4448 1.389
32.4553 1.368
32.4658 1.052
32.4763 1.042
32.4868 0.970
32.4974 0.899
32.5079 0.899
32.5184 0.735
32.5289 0.603
32.5395 0.684
32.5500 0.633
32.5605 0.511
32.5710 0.470
32.5815 0.541
32.5921 0.470
32.6026 0.500
32.6131 0.460
32.6236 0.388
32.6342 0.439
32.6447 0.603
32.6552 0.327
32.6657 0.419
32.6763 0.398
32.6868 0.470
32.6973 0.470
32.7078 0.347
32.7183 0.460
32.7289 0.398
32.7394 0.408
32.7499 0.327
32.7604 0.357
32.7710 0.276
32.7815 0.266
32.7920 0.317
32.8025 0.245
32.8130 0.306
32.8236 0.337
32.8341 0.306
32.8446 0.296
32.8551 0.347
32.8657 0.306
32.8762 0.266
32.8867 0.235
32.8972 0.255
32.9077 0.368
32.9183 0.255
32.9288 0.306
32.9393 0.255
32.9498 0.286
32.9604 0.225
32.9709 0.286
32.9814 0.225
32.9919 0.306
33.0025 0.194
33.0130 0.276
33.0235 0.306
33.0340 0.276
33.0445 0.235
33.0551 0.337
33.0656 0.235
33.0761 0.204
33.0866 0.266
33.0972 0.184
33.1077 0.276
33.1182 0.306
33.1287 0.204
33.1392 0.235
33.1498 0.378
33.1603 0.214
33.1708 0.163
33.1813 0.153
33.1919 0.266
33.2024 0.214
33.2129 0.286
33.2234 0.337
33.2340 0.296
33.2445 0.194
33.2550 0.347
33.2655 0.337
33.2760 0.235
33.2866 0.306
33.2971 0.174
33.3076 0.184
33.3181 0.214
33.3287 0.306
33.3392 0.225
33.3497 0.266
33.3602 0.174
33.3707 0.296
33.3813 0.225
33.3918 0.245
33.4023 0.245
33.4128 0.357
33.4234 0.317
33.4339 0.204
33.4444 0.266
33.4549 0.276
33.4654 0.235
33.4760 0.266
33.4865 0.327
33.4970 0.184
33.5075 0.123
33.5181 0.255
33.5286 0.327
33.5391 0.317
33.5496 0.235
33.5602 0.276
33.5707 0.184
33.5812 0.255
33.5917 0.245
33.6022 0.235
33.6128 0.255
33.6233 0.194
33.6338 0.276
33.6443 0.225
33.6549 0.306
33.6654 0.357
33.6759 0.266
33.6864 0.235
33.6969 0.204
33.7075 0.123
33.7180 0.266
33.7285 0.235
33.7390 0.235
33.7496 0.235
33.7601 0.296
33.7706 0.255
33.7811 0.306
33.7916 0.306
33.8022 0.163
33.8127 0.204
33.8232 0.276
33.8337 0.225
33.8443 0.306
33.8548 0.306
33.8653 0.255
33.8758 0.194
33.8864 0.214
33.8969 0.214
33.9074 0.296
33.9179 0.317
33.9284 0.235
33.9390 0.184
33.9495 0.225
33.9600 0.347
33.9705 0.174
33.9811 0.306
33.9916 0.276
34.0021 0.255
34.0126 0.174
34.0231 0.368
34.0337 0.255
34.0442 0.214
34.0547 0.245
34.0652 0.327
34.0758 0.347
34.0863 0.235
34.0968 0.225
34.1073 0.296
34.1179 0.245
34.1284 0.235
34.1389 0.255
34.1494 0.225
34.1599 0.286
34.1705 0.245
34.1810 0.317
34.1915 0.286
34.2020 0.286
34.2126 0.235
34.2231 0.174
34.2336 0.225
34.2441 0.194
34.2546 0.235
34.2652 0.337
34.2757 0.255
34.2862 0.255
34.2967 0.255
34.3073 0.184
34.3178 0.266
34.3283 0.235
34.3388 0.357
34.3493 0.398
34.3599 0.388
34.3704 0.460
34.3809 0.337
34.3914 0.276
34.4020 0.337
34.4125 0.368
34.4230 0.357
34.4335 0.470
34.4441 0.276
34.4546 0.327
34.4651 0.347
34.4756 0.327
34.4861 0.490
34.4967 0.378
34.5072 0.449
34.5177 0.449
34.5282 0.480
34.5388 0.408
34.5493 0.460
34.5598 0.531
34.5703 0.562
34.5808 0.541
34.5914 0.511
34.6019 0.664
34.6124 0.511
34.6229 0.654
34.6335 0.633
34.6440 0.725
34.6545 0.633
34.6650 0.664
34.6756 0.572
34.6861 0.551
34.6966 0.480
34.7071 0.562
34.7176 0.521
34.7282 0.480
34.7387 0.551
34.7492 0.521
34.7597 0.480
34.7703 0.572
34.7808 0.633
34.7913 0.368
34.8018 0.347
34.8123 0.337
34.8229 0.449
34.8334 0.368
34.8439 0.378
34.8544 0.378
34.8650 0.368
34.8755 0.245
34.8860 0.378
34.8965 0.317
34.9070 0.306
34.9176 0.286
34.9281 0.327
34.9386 0.368
34.9491 0.337
34.9597 0.296
34.9702 0.357
34.9807 0.408
34.9912 0.286
35.0018 0.296
35.0123 0.306
35.0228 0.408
35.0333 0.347
35.0438 0.419
35.0544 0.419
35.0649 0.388
35.0754 0.419
35.0859 0.429
35.0965 0.317
35.1070 0.306
35.1175 0.592
35.1280 0.449
35.1385 0.582
35.1491 0.521
35.1596 0.521
35.1701 0.562
35.1806 0.531
35.1912 0.500
35.2017 0.623
35.2122 0.592
35.2227 0.582
35.2332 0.623
35.2438 0.664
35.2543 0.878
35.2648 0.684
35.2753 0.827
35.2859 0.786
35.2964 0.858
35.3069 0.786
35.3174 1.113
35.3280 1.134
35.3385 1.031
35.3490 0.960
35.3595 1.123
35.3700 1.236
35.3806 1.317
35.3911 1.399
35.4016 1.777
35.4121 1.705
35.4227 1.808
35.4332 2.175
35.4437 2.083
35.4542 2.563
35.4647 2.655
35.4753 3.023
35.4858 3.350
35.4963 3.830
35.5068 4.800
35.5174 4.943
35.5279 5.494
35.5384 5.923
35.5489 7.087
35.5595 7.894
35.5700 8.476
35.5805 9.743
35.5910 11.591
35.6015 12.102
35.6121 12.980
35.6226 14.869
35.6331 15.625
35.6436 15.584
35.6542 16.799
35.6647 16.718
35.6752 17.147
35.6857 16.850
35.6962 15.778
35.7068 15.594
35.7173 14.471
35.7278 12.949
35.7383 12.275
35.7489 11.244
35.7594 10.488
35.7699 8.905
35.7804 8.160
35.7909 7.108
35.8015 7.036
35.8120 5.995
35.8225 5.219
35.8330 4.412
35.8436 3.973
35.8541 3.646
35.8646 3.319
35.8751 3.237
35.8857 2.808
35.8962 2.441
35.9067 2.696
35.9172 1.654
35.9277 2.114
35.9383 1.634
35.9488 1.797
35.9593 1.307
35.9698 1.266
35.9804 1.205
35.9909 1.358
36.0014 1.113
36.0119 0.991
36.0224 1.031
36.0330 0.827
36.0435 0.837
36.0540 1.001
36.0645 1.052
36.0751 0.878
36.0856 0.878
36.0961 0.797
36.1066 0.674
36.1171 0.623
36.1277 0.776
36.1382 0.684
36.1487 0.766
36.1592 0.684
36.1698 0.684
36.1803 0.500
36.1908 0.735
36.2013 0.603
36.2119 0.551
36.2224 0.603
36.2329 0.664
36.2434 0.664
36.2539 0.756
36.2645 0.664
36.2750 0.613
36.2855 0.623
36.2960 0.694
36.3066 0.746
36.3171 0.694
36.3276 0.654
36.3381 0.909
36.3486 0.664
36.3592 0.735
36.3697 0.929
36.3802 1.123
36.3907 1.042
36.4013 0.960
36.4118 1.113
36.4223 1.123
36.4328 1.420
36.4434 1.542
36.4539 1.654
36.4644 1.573
36.4749 1.787
36.4854 1.900
36.4960 2.237
36.5065 2.318
36.5170 2.482
36.5275 2.563
36.5381 3.023
36.5486 3.482
36.5591 3.768
36.5696 3.993
36.5801 4.596
36.5907 4.779
36.6012 5.065
36.6117 4.963
36.6222 5.413
36.6328 5.341
36.6433 5.055
36.6538 4.933
36.6643 5.474
36.6748 5.362
36.6854 4.483
36.6959 4.310
36.7064 4.065
36.7169 3.533
36.7275 3.135
36.7380 2.900
36.7485 3.074
36.7590 2.706
36.7696 2.512
36.7801 1.930
36.7906 2.042
36.8011 1.716
36.8116 2.022
36.8222 1.399
36.8327 1.277
36.8432 1.174
36.8537 1.093
36.8643 1.042
36.8748 0.868
36.8853 0.776
36.8958 0.909
36.9063 0.756
36.9169 0.807
36.9274 0.592
36.9379 0.613
36.9484 0.592
36.9590 0.531
36.9695 0.766
36.9800 0.500
36.9905 0.511
37.0010 0.327
37.0116 0.419
37.0221 0.368
37.0326 0.562
37.0431 0.449
37.0537 0.480
37.0642 0.408
37.0747 0.378
37.0852 0.357
37.0958 0.378
37.1063 0.357
37.1168 0.470
37.1273 0.490
37.1378 0.306
37.1484 0.408
37.1589 0.337
37.1694 0.408
37.1799 0.286
37.1905 0.266
37.2010 0.337
37.2115 0.347
37.2220 0.357
37.2325 0.276
37.2431 0.276
37.2536 0.327
37.2641 0.245
37.2746 0.255
37.2852 0.276
37.2957 0.255
37.3062 0.194
37.3167 0.204
37.3273 0.276
37.3378 0.276
37.3483 0.388
37.3588 0.296
37.3693 0.235
37.3799 0.266
37.3904 0.306
37.4009 0.194
37.4114 0.225
37.4220 0.368
37.4325 0.225
37.4430 0.357
37.4535 0.306
37.4640 0.225
37.4746 0.368
37.4851 0.327
37.4956 0.194
37.5061 0.255
37.5167 0.357
37.5272 0.368
37.5377 0.337
37.5482 0.408
37.5587 0.347
37.5693 0.439
37.5798 0.255
37.5903 0.470
37.6008 0.357
37.6114 0.317
37.6219 0.347
37.6324 0.470
37.6429 0.449
37.6535 0.470
37.6640 0.460
37.6745 0.449
37.6850 0.419
37.6955 0.500
37.7061 0.500
37.7166 0.603
37.7271 0.521
37.7376 0.521
37.7482 0.684
37.7587 0.756
37.7692 0.827
37.7797 1.031
37.7902 0.817
37.8008 0.950
37.8113 1.001
37.8218 1.185
37.8323 1.195
37.8429 1.399
37.8534 1.654
37.8639 1.787
37.8744 2.032
37.8849 2.053
37.8955 2.390
37.9060 2.788
37.9165 3.033
37.9270 3.237
37.9376 3.023
37.9481 3.585
37.9586 3.789
37.9691 3.962
37.9797 3.656
37.9902 3.309
38.0007 3.421
38.0112 3.431
38.0217 3.105
38.0323 3.145
38.0428 3.013
38.0533 2.635
38.0638 2.237
38.0744 2.104
38.0849 2.002
38.0954 1.603
38.1059 1.603
38.1164 1.614
38.1270 1.205
38.1375 1.144
38.1480 1.113
38.1585 0.909
38.1691 0.797
38.1796 0.786
38.1901 0.664
38.2006 0.837
38.2112 0.633
38.2217 0.715
38.2322 0.633
38.2427 0.551
38.2532 0.511
38.2638 0.511
38.2743 0.572
38.2848 0.551
38.2953 0.531
38.3059 0.439
38.3164 0.531
38.3269 0.572
38.3374 0.541
38.3479 0.500
38.3585 0.378
38.3690 0.460
38.3795 0.654
38.3900 0.511
38.4006 0.398
38.4111 0.347
38.4216 0.449
38.4321 0.306
38.4426 0.419
38.4532 0.317
38.4637 0.368
38.4742 0.408
38.4847 0.245
38.4953 0.286
38.5058 0.174
38.5163 0.286
38.5268 0.337
38.5374 0.235
38.5479 0.337
38.5584 0.357
38.5689 0.327
38.5794 0.327
38.5900 0.296
38.6005 0.204
38.6110 0.214
38.6215 0.235
38.6321 0.276
38.6426 0.388
38.6531 0.184
38.6636 0.194
38.6741 0.153
38.6847 0.235
38.6952 0.306
38.7057 0.327
38.7162 0.306
38.7268 0.296
38.7373 0.214
38.7478 0.276
38.7583 0.286
38.7689 0.214
38.7794 0.317
38.7899 0.255
38.8004 0.327
38.8109 0.214
38.8215 0.225
38.8320 0.204
38.8425 0.266
38.8530 0.327
38.8636 0.214
38.8741 0.255
38.8846 0.245
38.8951 0.255
38.9056 0.225
38.9162 0.255
38.9267 0.296
38.9372 0.296
38.9477 0.276
38.9583 0.317
38.9688 0.419
38.9793 0.235
38.9898 0.337
39.0003 0.296
39.0109 0.214
39.0214 0.296
39.0319 0.306
39.0424 0.286
39.0530 0.408
39.0635 0.388
39.0740 0.337
39.0845 0.357
39.0951 0.368
39.1056 0.500
39.1161 0.592
39.1266 0.449
39.1371 0.419
39.1477 0.470
39.1582 0.480
39.1687 0.582
39.1792 0.623
39.1898 0.582
39.2003 0.623
39.2108 0.643
39.2213 0.899
39.2318 0.848
39.2424 0.919
39.2529 0.827
39.2634 0.919
39.2739 1.389
39.2845 1.338
39.2950 1.665
39.3055 1.614
39.3160 1.838
39.3265 2.032
39.3371 1.787
39.3476 2.369
39.3581 2.349
39.3686 2.216
39.3792 2.369
39.3897 2.328
39.4002 2.226
39.4107 2.379
39.4213 2.175
39.4318 2.267
39.4423 2.114
39.4528 1.859
39.4633 1.961
39.4739 1.603
39.4844 1.511
39.4949 1.603
39.5054 1.430
39.5160 1.389
39.5265 1.287
39.5370 1.185
39.5475 1.277
39.5580 1.185
39.5686 1.338
39.5791 1.368
39.5896 1.808
39.6001 1.583
39.6107 1.767
39.6212 1.746
39.6317 2.053
39.6422 2.073
39.6528 1.920
39.6633 2.288
39.6738 2.553
39.6843 2.522
39.6948 2.951
39.7054 3.676
39.7159 3.115
39.7264 3.380
39.7369 3.799
39.7475 3.523
39.7580 3.064
39.7685 3.758
39.7790 3.932
39.7895 4.003
39.8001 4.167
39.8106 4.105
39.8211 3.768
39.8316 4.381
39.8422 4.524
39.8527 4.585
39.8632 4.534
39.8737 4.116
39.8842 4.003
39.8948 4.208
39.9053 3.544
39.9158 3.513
39.9263 3.564
39.9369 3.268
39.9474 3.339
39.9579 2.696
39.9684 2.451
39.9790 2.563
39.9895 2.032
40.0000 1.991
40.0105 1.818
40.0210 1.440
40.0316 1.266
40.0421 1.256
40.0526 1.011
40.0631 1.021
40.0737 1.001
40.0842 1.011
40.0947 0.858
40.1052 0.725
40.1157 0.848
40.1263 0.786
40.1368 0.633
40.1473 0.521
40.1578 0.715
40.1684 0.674
40.1789 0.490
40.1894 0.500
40.1999 0.327
40.2104 0.460
40.2210 0.357
40.2315 0.398
40.2420 0.327
40.2525 0.378
40.2631 0.480
40.2736 0.327
40.2841 0.337
40.2946 0.286
40.3052 0.296
40.3157 0.327
40.3262 0.347
40.3367 0.266
40.3472 0.398
40.3578 0.347
40.3683 0.266
40.3788 0.296
40.3893 0.327
40.3999 0.357
40.4104 0.286
40.4209 0.286
40.4314 0.214
40.4419 0.266
40.4525 0.357
40.4630 0.204
40.4735 0.306
40.4840 0.255
40.4946 0.214
40.5051 0.245
40.5156 0.306
40.5261 0.245
40.5367 0.245
40.5472 0.317
40.5577 0.296
40.5682 0.194
40.5787 0.245
40.5893 0.296
40.5998 0.245
40.6103 0.133
40.6208 0.286
40.6314 0.204
40.6419 0.235
40.6524 0.317
40.6629 0.194
40.6734 0.204
40.6840 0.317
40.6945 0.235
40.7050 0.296
40.7155 0.255
40.7261 0.194
40.7366 0.225
40.7471 0.235
40.7576 0.204
40.7681 0.184
40.7787 0.174
40.7892 0.245
40.7997 0.235
40.8102 0.286
40.8208 0.266
40.8313 0.184
40.8418 0.194
40.8523 0.194
40.8629 0.153
40.8734 0.163
40.8839 0.235
40.8944 0.245
40.9049 0.266
40.9155 0.225
40.9260 0.255
40.9365 0.225
40.9470 0.123
40.9576 0.255
40.9681 0.296
40.9786 0.174
40.9891 0.317
40.9996 0.266
41.0102 0.214
41.0207 0.133
41.0312 0.235
41.0417 0.255
41.0523 0.143
41.0628 0.276
41.0733 0.102
41.0838 0.255
41.0943 0.276
41.1049 0.194
41.1154 0.143
41.1259 0.225
41.1364 0.204
41.1470 0.255
41.1575 0.235
41.1680 0.194
41.1785 0.204
41.1891 0.194
41.1996 0.306
41.2101 0.174
41.2206 0.255
41.2311 0.133
41.2417 0.235
41.2522 0.163
41.2627 0.276
41.2732 0.214
41.2838 0.153
41.2943 0.153
41.3048 0.153
41.3153 0.194
41.3258 0.245
41.3364 0.235
41.3469 0.225
41.3574 0.225
41.3679 0.317
41.3785 0.214
41.3890 0.235
41.3995 0.184
41.4100 0.276
41.4206 0.225
41.4311 0.194
41.4416 0.153
41.4521 0.204
41.4626 0.194
41.4732 0.184
41.4837 0.194
41.4942 0.143
41.5047 0.194
41.5153 0.163
41.5258 0.245
41.5363 0.245
41.5468 0.245
41.5573 0.174
41.5679 0.204
41.5784 0.194
41.5889 0.225
41.5994 0.225
41.6100 0.255
41.6205 0.266
41.6310 0.235
41.6415 0.204
41.6520 0.214
41.6626 0.225
41.6731 0.153
41.6836 0.276
41.6941 0.194
41.7047 0.266
41.7152 0.225
41.7257 0.225
41.7362 0.235
41.7468 0.174
41.7573 0.194
41.7678 0.245
41.7783 0.204
41.7888 0.368
41.7994 0.296
41.8099 0.357
41.8204 0.235
41.8309 0.388
41.8415 0.184
41.8520 0.245
41.8625 0.296
41.8730 0.296
41.8835 0.306
41.8941 0.266
41.9046 0.347
41.9151 0.266
41.9256 0.357
41.9362 0.286
41.9467 0.296
41.9572 0.327
41.9677 0.337
41.9783 0.266
41.9888 0.398
41.9993 0.470
42.0098 0.449
42.0203 0.388
42.0309 0.408
42.0414 0.562
42.0519 0.408
42.0624 0.654
42.0730 0.603
42.0835 0.674
42.0940 0.868
42.1045 0.919
42.1150 0.776
42.1256 1.072
42.1361 1.021
42.1466 1.052
42.1571 1.134
42.1677 1.246
42.1782 1.511
42.1887 1.869
42.1992 2.042
42.2097 1.900
42.2203 2.155
42.2308 2.512
42.2413 2.778
42.2518 2.839
42.2624 2.982
42.2729 3.299
42.2834 3.074
42.2939 3.156
42.3045 2.921
42.3150 3.248
42.3255 3.166
42.3360 2.635
42.3465 2.808
42.3571 2.369
42.3676 2.267
42.3781 2.288
42.3886 1.767
42.3992 1.716
42.4097 1.389
42.4202 1.522
42.4307 1.225
42.4412 1.154
42.4518 1.062
42.4623 1.093
42.4728 0.766
42.4833 0.756
42.4939 0.715
42.5044 0.603
42.5149 0.582
42.5254 0.613
42.5359 0.541
42.5465 0.664
42.5570 0.408
42.5675 0.439
42.5780 0.378
42.5886 0.429
42.5991 0.357
42.6096 0.327
42.6201 0.439
42.6307 0.347
42.6412 0.306
42.6517 0.245
42.6622 0.286
42.6727 0.235
42.6833 0.214
42.6938 0.398
42.7043 0.255
42.7148 0.378
42.7254 0.276
42.7359 0.327
42.7464 0.184
42.7569 0.245
42.7674 0.225
42.7780 0.276
42.7885 0.276
42.7990 0.337
42.8095 0.204
42.8201 0.204
42.8306 0.184
42.8411 0.225
42.8516 0.153
42.8622 0.225
42.8727 0.194
42.8832 0.245
42.8937 0.266
42.9042 0.204
42.9148 0.194
42.9253 0.184
42.9358 0.194
42.9463 0.194
42.9569 0.163
42.9674 0.163
42.9779 0.153
42.9884 0.123
42.9989 0.194
43.0095 0.184
43.0200 0.235
43.0305 0.184
43.0410 0.184
43.0516 0.225
43.0621 0.174
43.0726 0.174
43.0831 0.143
43.0936 0.184
43.1042 0.245
43.1147 0.184
43.1252 0.133
43.1357 0.174
43.1463 0.174
43.1568 0.174
43.1673 0.245
43.1778 0.245
43.1884 0.071
43.1989 0.153
43.2094 0.225
43.2199 0.194
43.2304 0.123
43.2410 0.286
43.2515 0.163
43.2620 0.245
43.2725 0.266
43.2831 0.194
43.2936 0.235
43.3041 0.194
43.3146 0.163
43.3251 0.235
43.3357 0.245
43.3462 0.194
43.3567 0.153
43.3672 0.204
43.3778 0.194
43.3883 0.214
43.3988 0.255
43.4093 0.184
43.4198 0.194
43.4304 0.245
43.4409 0.194
43.4514 0.123
43.4619 0.163
43.4725 0.184
43.4830 0.184
43.4935 0.286
43.5040 0.184
43.5146 0.133
43.5251 0.214
43.5356 0.143
43.5461 0.184
43.5566 0.286
43.5672 0.163
43.5777 0.174
43.5882 0.204
43.5987 0.194
43.6093 0.174
43.6198 0.143
43.6303 0.143
43.6408 0.153
43.6513 0.184
43.6619 0.184
43.6724 0.112
43.6829 0.163
43.6934 0.235
43.7040 0.133
43.7145 0.276
43.7250 0.163
43.7355 0.153
43.7461 0.225
43.7566 0.204
43.7671 0.214
43.7776 0.266
43.7881 0.123
43.7987 0.184
43.8092 0.204
43.8197 0.143
43.8302 0.143
43.8408 0.245
43.8513 0.153
43.8618 0.133
43.8723 0.112
43.8828 0.204
43.8934 0.174
43.9039 0.204
43.9144 0.153
43.9249 0.204
43.9355 0.225
43.9460 0.245
43.9565 0.306
43.9670 0.245
43.9775 0.235
43.9881 0.245
43.9986 0.184
44.0091 0.204
44.0196 0.112
44.0302 0.245
44.0407 0.163
44.0512 0.204
44.0617 0.245
44.0723 0.123
44.0828 0.245
44.0933 0.153
44.1038 0.357
44.1143 0.255
44.1249 0.163
44.1354 0.214
44.1459 0.204
44.1564 0.184
44.1670 0.235
44.1775 0.133
44.1880 0.255
44.1985 0.235
44.2090 0.214
44.2196 0.317
44.2301 0.276
44.2406 0.337
44.2511 0.235
44.2617 0.398
44.2722 0.337
44.2827 0.439
44.2932 0.439
44.3037 0.419
44.3143 0.378
44.3248 0.521
44.3353 0.480
44.3458 0.357
44.3564 0.500
44.3669 0.725
44.3774 0.664
44.3879 0.664
44.3985 0.797
44.4090 0.603
44.4195 0.776
44.4300 0.919
44.4405 0.991
44.4511 0.807
44.4616 0.991
44.4721 1.042
44.4826 0.909
44.4932 0.980
44.5037 1.205
44.5142 0.991
44.5247 0.980
44.5352 0.929
44.5458 0.807
44.5563 0.746
44.5668 0.664
44.5773 0.735
44.5879 0.786
44.5984 0.603
44.6089 0.582
44.6194 0.562
44.6300 0.531
44.6405 0.429
44.6510 0.429
44.6615 0.480
44.6720 0.480
44.6826 0.429
44.6931 0.439
44.7036 0.439
44.7141 0.378
44.7247 0.327
44.7352 0.306
44.7457 0.357
44.7562 0.286
44.7667 0.337
44.7773 0.470
44.7878 0.327
44.7983 0.347
44.8088 0.327
44.8194 0.347
44.8299 0.245
44.8404 0.378
44.8509 0.388
44.8614 0.460
44.8720 0.368
44.8825 0.419
44.8930 0.460
44.9035 0.480
44.9141 0.654
44.9246 0.623
44.9351 0.592
44.9456 0.705
44.9562 0.654
44.9667 0.674
44.9772 0.603
44.9877 0.746
44.9982 0.868
45.0088 0.817
45.0193 0.991
45.0298 0.858
45.0403 0.929
45.0509 0.684
45.0614 0.694
45.0719 1.011
45.0824 0.746
45.0929 0.970
45.1035 0.807
45.1140 0.664
45.1245 0.613
45.1350 0.643
45.1456 0.511
45.1561 0.521
45.1666 0.664
45.1771 0.429
45.1877 0.408
45.1982 0.449
45.2087 0.408
45.2192 0.306
45.2297 0.286
45.2403 0.245
45.2508 0.306
45.2613 0.347
45.2718 0.235
45.2824 0.306
45.2929 0.235
45.3034 0.306
45.3139 0.225
45.3244 0.184
45.3350 0.245
45.3455 0.286
45.3560 0.184
45.3665 0.296
45.3771 0.184
45.3876 0.327
45.3981 0.163
45.4086 0.153
45.4191 0.133
45.4297 0.306
45.4402 0.204
45.4507 0.102
45.4612 0.174
45.4718 0.245
45.4823 0.204
45.4928 0.266
45.5033 0.235
45.5139 0.235
45.5244 0.184
45.5349 0.235
45.5454 0.214
45.5559 0.255
45.5665 0.153
45.5770 0.266
45.5875 0.153
45.5980 0.174
45.6086 0.204
45.6191 0.163
45.6296 0.102
45.6401 0.102
45.6506 0.245
45.6612 0.245
45.6717 0.174
45.6822 0.163
45.6927 0.163
45.7033 0.112
45.7138 0.184
45.7243 0.194
45.7348 0.194
45.7453 0.051
45.7559 0.163
45.7664 0.133
45.7769 0.143
45.7874 0.194
45.7980 0.204
45.8085 0.214
45.8190 0.235
45.8295 0.194
45.8401 0.133
45.8506 0.153
45.8611 0.184
45.8716 0.245
45.8821 0.214
45.8927 0.184
45.9032 0.194
45.9137 0.214
45.9242 0.245
45.9348 0.174
45.9453 0.174
45.9558 0.266
45.9663 0.194
45.9768 0.204
45.9874 0.102
45.9979 0.133
46.0084 0.276
46.0189 0.143
46.0295 0.153
46.0400 0.225
46.0505 0.184
46.0610 0.204
46.0716 0.204
46.0821 0.184
46.0926 0.204
46.1031 0.225
46.1136 0.194
46.1242 0.204
46.1347 0.153
46.1452 0.153
46.1557 0.143
46.1663 0.276
46.1768 0.306
46.1873 0.163
46.1978 0.174
46.2083 0.225
46.2189 0.194
46.2294 0.245
46.2399 0.337
46.2504 0.204
46.2610 0.184
46.2715 0.296
46.2820 0.266
46.2925 0.245
46.3030 0.347
46.3136 0.317
46.3241 0.296
46.3346 0.368
46.3451 0.378
46.3557 0.357
46.3662 0.368
46.3767 0.357
46.3872 0.511
46.3978 0.378
46.4083 0.480
46.4188 0.572
46.4293 0.531
46.4398 0.429
46.4504 0.562
46.4609 0.408
46.4714 0.347
46.4819 0.460
46.4925 0.531
46.5030 0.470
46.5135 0.419
46.5240 0.429
46.5345 0.378
46.5451 0.327
46.5556 0.286
46.5661 0.306
46.5766 0.306
46.5872 0.408
46.5977 0.214
46.6082 0.214
46.6187 0.347
46.6292 0.245
46.6398 0.266
46.6503 0.235
46.6608 0.276
46.6713 0.255
46.6819 0.174
46.6924 0.225
46.7029 0.214
46.7134 0.317
46.7240 0.266
46.7345 0.214
46.7450 0.306
46.7555 0.245
46.7660 0.225
46.7766 0.194
46.7871 0.184
46.7976 0.174
46.8081 0.194
46.8187 0.133
46.8292 0.153
46.8397 0.133
46.8502 0.153
46.8607 0.214
46.8713 0.174
46.8818 0.174
46.8923 0.225
46.9028 0.266
46.9134 0.255
46.9239 0.112
46.9344 0.153
46.9449 0.153
46.9555 0.225
46.9660 0.214
46.9765 0.184
46.9870 0.235
46.9975 0.214
47.0081 0.051
47.0186 0.194
47.0291 0.112
47.0396 0.235
47.0502 0.214
47.0607 0.214
47.0712 0.204
47.0817 0.123
47.0922 0.194
47.1028 0.204
47.1133 0.184
47.1238 0.143
47.1343 0.153
47.1449 0.235
47.1554 0.184
47.1659 0.163
47.1764 0.174
47.1869 0.214
47.1975 0.174
47.2080 0.214
47.2185 0.143
47.2290 0.092
47.2396 0.225
47.2501 0.174
47.2606 0.266
47.2711 0.112
47.2817 0.123
47.2922 0.184
47.3027 0.133
47.3132 0.143
47.3237 0.184
47.3343 0.061
47.3448 0.235
47.3553 0.123
47.3658 0.184
47.3764 0.184
47.3869 0.123
47.3974 0.133
47.4079 0.163
47.4184 0.123
47.4290 0.174
47.4395 0.174
47.4500 0.204
47.4605 0.153
47.4711 0.194
47.4816 0.184
47.4921 0.163
47.5026 0.194
47.5131 0.214
47.5237 0.163
47.5342 0.143
47.5447 0.194
47.5552 0.194
47.5658 0.225
47.5763 0.194
47.5868 0.082
47.5973 0.143
47.6079 0.153
47.6184 0.194
47.6289 0.153
47.6394 0.194
47.6499 0.194
47.6605 0.245
47.6710 0.143
47.6815 0.174
47.6920 0.133
47.7026 0.123
47.7131 0.204
47.7236 0.174
47.7341 0.133
47.7446 0.214
47.7552 0.143
47.7657 0.225
47.7762 0.153
47.7867 0.163
47.7973 0.204
47.8078 0.153
47.8183 0.214
47.8288 0.102
47.8394 0.255
47.8499 0.225
47.8604 0.163
47.8709 0.204
47.8814 0.255
47.8920 0.153
47.9025 0.194
47.9130 0.204
47.9235 0.174
47.9341 0.266
47.9446 0.184
47.9551 0.112
47.9656 0.163
47.9761 0.194
47.9867 0.266
47.9972 0.225
48.0077 0.214
48.0182 0.163
48.0288 0.225
48.0393 0.194
48.0498 0.327
48.0603 0.368
48.0708 0.317
48.0814 0.327
48.0919 0.337
48.1024 0.398
48.1129 0.398
48.1235 0.357
48.1340 0.378
48.1445 0.470
48.1550 0.449
48.1656 0.429
48.1761 0.378
48.1866 0.429
48.1971 0.357
48.2076 0.419
48.2182 0.408
48.2287 0.368
48.2392 0.245
48.2497 0.266
48.2603 0.439
48.2708 0.225
48.2813 0.225
48.2918 0.276
48.3023 0.225
48.3129 0.133
48.3234 0.204
48.3339 0.306
48.3444 0.296
48.3550 0.225
48.3655 0.225
48.3760 0.214
48.3865 0.235
48.3970 0.214
48.4076 0.143
48.4181 0.184
48.4286 0.163
48.4391 0.194
48.4497 0.245
48.4602 0.184
48.4707 0.225
48.4812 0.225
48.4918 0.214
48.5023 0.194
48.5128 0.225
48.5233 0.266
48.5338 0.235
48.5444 0.184
48.5549 0.225
48.5654 0.266
48.5759 0.194
48.5865 0.245
48.5970 0.286
48.6075 0.225
48.6180 0.194
48.6285 0.174
48.6391 0.225
48.6496 0.235
48.6601 0.235
48.6706 0.204
48.6812 0.214
48.6917 0.184
48.7022 0.204
48.7127 0.204
48.7233 0.225
48.7338 0.225
48.7443 0.306
48.7548 0.266
48.7653 0.266
48.7759 0.245
48.7864 0.255
48.7969 0.225
48.8074 0.204
48.8180 0.255
48.8285 0.306
48.8390 0.296
48.8495 0.357
48.8600 0.306
48.8706 0.327
48.8811 0.245
48.8916 0.306
48.9021 0.368
48.9127 0.235
48.9232 0.388
48.9337 0.388
48.9442 0.286
48.9547 0.306
48.9653 0.276
48.9758 0.357
48.9863 0.398
48.9968 0.347
49.0074 0.378
49.0179 0.337
49.0284 0.449
49.0389 0.511
49.0495 0.439
49.0600 0.449
49.0705 0.408
49.0810 0.613
49.0915 0.664
49.1021 0.654
49.1126 0.633
49.1231 0.715
49.1336 0.848
49.1442 0.664
49.1547 0.970
49.1652 0.960
49.1757 1.021
49.1862 0.929
49.1968 1.083
49.2073 1.277
49.2178 1.348
49.2283 1.471
49.2389 1.552
49.2494 1.287
49.2599 1.808
49.2704 1.716
49.2810 2.063
49.2915 1.787
49.3020 2.012
49.3125 1.808
49.3230 1.951
49.3336 1.920
49.3441 1.910
49.3546 1.930
49.3651 1.757
49.3757 1.583
49.3862 1.563
49.3967 1.542
49.4072 1.379
49.4177 1.042
49.4283 1.062
49.4388 1.113
49.4493 1.164
49.4598 1.144
49.4704 0.899
49.4809 0.848
49.4914 0.756
49.5019 0.633
49.5124 0.613
49.5230 0.664
49.5335 0.746
49.5440 0.603
49.5545 0.674
49.5651 0.511
49.5756 0.562
49.5861 0.592
49.5966 0.613
49.6072 0.439
49.6177 0.531
49.6282 0.460
49.6387 0.572
49.6492 0.398
49.6598 0.500
49.6703 0.521
49.6808 0.408
49.6913 0.592
49.7019 0.490
49.7124 0.388
49.7229 0.521
49.7334 0.378
49.7439 0.327
49.7545 0.255
49.7650 0.337
49.7755 0.357
49.7860 0.398
49.7966 0.337
49.8071 0.347
49.8176 0.439
49.8281 0.266
49.8386 0.327
49.8492 0.398
49.8597 0.337
49.8702 0.388
49.8807 0.235
49.8913 0.439
49.9018 0.408
49.9123 0.337
49.9228 0.368
49.9334 0.419
49.9439 0.398
49.9544 0.398
49.9649 0.419
49.9754 0.582
49.9860 0.541
49.9965 0.582
50.0070 0.521
50.0175 0.592
50.0281 0.500
50.0386 0.449
50.0491 0.613
50.0596 0.817
50.0701 0.633
50.0807 0.572
50.0912 0.725
50.1017 0.817
50.1122 0.674
50.1228 0.837
50.1333 0.878
50.1438 1.001
50.1543 1.062
50.1649 1.011
50.1754 0.919
50.1859 0.940
50.1964 0.888
50.2069 1.195
50.2175 0.980
50.2280 1.266
50.2385 1.093
50.2490 1.042
50.2596 1.297
50.2701 1.450
50.2806 1.481
50.2911 1.471
50.3016 1.460
50.3122 1.900
50.3227 1.736
50.3332 1.716
50.3437 1.869
50.3543 2.022
50.3648 2.022
50.3753 2.094
50.3858 2.083
50.3963 2.349
50.4069 2.083
50.4174 2.002
50.4279 2.083
50.4384 2.063
50.4490 2.257
50.4595 1.900
50.4700 2.053
50.4805 2.124
50.4911 2.073
50.5016 2.042
50.5121 1.532
50.5226 1.869
50.5331 1.665
50.5437 1.695
50.5542 1.818
50.5647 1.685
50.5752 1.654
50.5858 1.563
50.5963 1.869
50.6068 1.848
50.6173 1.675
50.6278 1.767
50.6384 1.624
50.6489 1.716
50.6594 1.379
50.6699 1.501
50.6805 1.665
50.6910 1.266
50.7015 1.450
50.7120 1.205
50.7225 1.113
50.7331 1.062
50.7436 0.980
50.7541 0.940
50.7646 1.001
50.7752 0.960
50.7857 0.684
50.7962 0.715
50.8067 0.735
50.8173 0.623
50.8278 0.674
50.8383 0.521
50.8488 0.674
50.8593 0.511
50.8699 0.419
50.8804 0.541
50.8909 0.511
50.9014 0.357
50.9120 0.419
50.9225 0.429
50.9330 0.378
50.9435 0.357
50.9540 0.408
50.9646 0.266
50.9751 0.245
50.9856 0.306
50.9961 0.286
51.0067 0.306
51.0172 0.388
51.0277 0.245
51.0382 0.306
51.0488 0.245
51.0593 0.266
51.0698 0.245
51.0803 0.276
51.0908 0.245
51.1014 0.276
51.1119 0.225
51.1224 0.296
51.1329 0.184
51.1435 0.255
51.1540 0.245
51.1645 0.204
51.1750 0.225
51.1855 0.194
51.1961 0.184
51.2066 0.214
51.2171 0.255
51.2276 0.204
51.2382 0.214
51.2487 0.266
51.2592 0.266
51.2697 0.194
51.2802 0.286
51.2908 0.184
51.3013 0.225
51.3118 0.266
51.3223 0.194
51.3329 0.245
51.3434 0.245
51.3539 0.245
51.3644 0.286
51.3750 0.184
51.3855 0.184
51.3960 0.245
51.4065 0.296
51.4170 0.214
51.4276 0.214
51.4381 0.245
51.4486 0.225
51.4591 0.245
51.4697 0.184
51.4802 0.255
51.4907 0.143
51.5012 0.214
51.5117 0.163
51.5223 0.245
51.5328 0.184
51.5433 0.286
51.5538 0.276
51.5644 0.204
51.5749 0.174
51.5854 0.235
51.5959 0.163
51.6064 0.245
51.6170 0.266
51.6275 0.276
51.6380 0.214
51.6485 0.235
51.6591 0.266
51.6696 0.174
51.6801 0.204
51.6906 0.266
51.7012 0.266
51.7117 0.276
51.7222 0.235
51.7327 0.214
51.7432 0.306
51.7538 0.133
51.7643 0.255
51.7748 0.245
51.7853 0.235
51.7959 0.255
51.8064 0.163
51.8169 0.235
51.8274 0.214
51.8379 0.378
51.8485 0.255
51.8590 0.184
51.8695 0.296
51.8800 0.214
51.8906 0.225
51.9011 0.327
51.9116 0.245
51.9221 0.214
51.9327 0.266
51.9432 0.306
51.9537 0.327
51.9642 0.184
51.9747 0.286
51.9853 0.266
51.9958 0.286
52.0063 0.327
52.0168 0.276
52.0274 0.306
52.0379 0.306
52.0484 0.398
52.0589 0.368
52.0694 0.347
52.0800 0.368
52.0905 0.347
52.1010 0.408
52.1115 0.296
52.1221 0.398
52.1326 0.368
52.1431 0.337
52.1536 0.531
52.1641 0.398
52.1747 0.603
52.1852 0.449
52.1957 0.490
52.2062 0.541
52.2168 0.633
52.2273 0.592
52.2378 0.654
52.2483 0.633
52.2589 0.694
52.2694 0.654
52.2799 0.715
52.2904 0.868
52.3009 0.980
52.3115 0.888
52.3220 1.042
52.3325 0.919
52.3430 1.042
52.3536 0.991
52.3641 1.297
52.3746 1.256
52.3851 1.379
52.3956 1.593
52.4062 1.828
52.4167 1.501
52.4272 1.716
52.4377 2.165
52.4483 2.400
52.4588 2.819
52.4693 2.614
52.4798 3.196
52.4904 3.033
52.5009 3.401
52.5114 3.615
52.5219 3.728
52.5324 4.095
52.5430 4.310
52.5535 4.892
52.5640 5.300
52.5745 5.178
52.5851 4.677
52.5956 5.474
52.6061 5.280
52.6166 5.372
52.6271 5.341
52.6377 5.321
52.6482 5.504
52.6587 4.790
52.6692 5.167
52.6798 5.310
52.6903 4.514
52.7008 4.371
52.7113 4.146
52.7218 3.952
52.7324 3.717
52.7429 3.574
52.7534 3.554
52.7639 3.196
52.7745 3.166
52.7850 2.778
52.7955 2.717
52.8060 2.512
52.8166 2.706
52.8271 2.441
52.8376 2.420
52.8481 2.216
52.8586 2.298
52.8692 2.165
52.8797 1.797
52.8902 1.838
52.9007 1.848
52.9113 1.542
52.9218 1.614
52.9323 1.552
52.9428 1.328
52.9533 1.144
52.9639 1.317
52.9744 1.134
52.9849 1.134
52.9954 0.960
53.0060 0.980
53.0165 0.827
53.0270 0.858
53.0375 1.042
53.0480 0.705
53.0586 0.797
53.0691 0.827
53.0796 0.756
53.0901 0.735
53.1007 0.878
53.1112 0.705
53.1217 0.449
53.1322 0.572
53.1428 0.582
53.1533 0.388
53.1638 0.551
53.1743 0.603
53.1848 0.531
53.1954 0.511
53.2059 0.439
53.2164 0.490
53.2269 0.480
53.2375 0.541
53.2480 0.511
53.2585 0.715
53.2690 0.603
53.2795 0.490
53.2901 0.357
53.3006 0.521
53.3111 0.521
53.3216 0.398
53.3322 0.398
53.3427 0.388
53.3532 0.347
53.3637 0.357
53.3743 0.276
53.3848 0.357
53.3953 0.408
53.4058 0.317
53.4163 0.317
53.4269 0.388
53.4374 0.266
53.4479 0.276
53.4584 0.286
53.4690 0.266
53.4795 0.296
53.4900 0.225
53.5005 0.235
53.5110 0.286
53.5216 0.225
53.5321 0.255
53.5426 0.214
53.5531 0.245
53.5637 0.276
53.5742 0.225
53.5847 0.255
53.5952 0.194
53.6057 0.204
53.6163 0.174
53.6268 0.194
53.6373 0.214
53.6478 0.266
53.6584 0.225
53.6689 0.296
53.6794 0.174
53.6899 0.194
53.7005 0.194
53.7110 0.214
53.7215 0.194
53.7320 0.276
53.7425 0.276
53.7531 0.214
53.7636 0.255
53.7741 0.276
53.7846 0.286
53.7952 0.194
53.8057 0.184
53.8162 0.286
53.8267 0.153
53.8372 0.194
53.8478 0.214
53.8583 0.174
53.8688 0.214
53.8793 0.174
53.8899 0.194
53.9004 0.357
53.9109 0.184
53.9214 0.266
53.9319 0.204
53.9425 0.255
53.9530 0.296
53.9635 0.429
53.9740 0.204
53.9846 0.235
53.9951 0.235
54.0056 0.235
54.0161 0.317
54.0267 0.235
54.0372 0.174
54.0477 0.163
54.0582 0.184
54.0687 0.245
54.0793 0.255
54.0898 0.184
54.1003 0.174
54.1108 0.204
54.1214 0.204
54.1319 0.235
54.1424 0.235
54.1529 0.214
54.1634 0.235
54.1740 0.255
54.1845 0.296
54.1950 0.174
54.2055 0.245
54.2161 0.184
54.2266 0.255
54.2371 0.357
54.2476 0.225
54.2582 0.143
54.2687 0.194
54.2792 0.163
54.2897 0.255
54.3002 0.245
54.3108 0.245
54.3213 0.174
54.3318 0.225
54.3423 0.214
54.3529 0.245
54.3634 0.317
54.3739 0.235
54.3844 0.235
54.3949 0.235
54.4055 0.204
54.4160 0.184
54.4265 0.317
54.4370 0.276
54.4476 0.204
54.4581 0.235
54.4686 0.317
54.4791 0.337
54.4896 0.214
54.5002 0.327
54.5107 0.184
54.5212 0.286
54.5317 0.419
54.5423 0.245
54.5528 0.266
54.5633 0.296
54.5738 0.143
54.5844 0.245
54.5949 0.347
54.6054 0.245
54.6159 0.327
54.6264 0.388
54.6370 0.398
54.6475 0.419
54.6580 0.398
54.6685 0.327
54.6791 0.388
54.6896 0.286
54.7001 0.357
54.7106 0.490
54.7211 0.439
54.7317 0.439
54.7422 0.388
54.7527 0.480
54.7632 0.572
54.7738 0.613
54.7843 0.603
54.7948 0.654
54.8053 0.613
54.8158 0.633
54.8264 0.725
54.8369 0.735
54.8474 0.735
54.8579 0.827
54.8685 0.888
54.8790 1.042
54.8895 1.001
54.9000 0.970
54.9106 1.225
54.9211 1.246
54.9316 1.215
54.9421 1.440
54.9526 1.716
54.9632 1.624
54.9737 1.951
54.9842 1.777
54.9947 1.787
55.0053 2.002
55.0158 2.420
55.0263 2.379
55.0368 2.349
55.0473 2.512
55.0579 2.298
55.0684 2.390
55.0789 2.308
55.0894 2.175
55.1000 1.991
55.1105 2.032
55.1210 2.298
55.1315 1.859
55.1421 1.767
55.1526 1.685
55.1631 1.685
55.1736 1.695
55.1841 1.532
55.1947 1.348
55.2052 1.307
55.2157 1.348
55.2262 1.174
55.2368 0.940
55.2473 1.062
55.2578 1.021
55.2683 1.113
55.2788 1.062
55.2894 1.042
55.2999 1.001
55.3104 1.062
55.3209 1.134
55.3315 0.899
55.3420 0.980
55.3525 1.113
55.3630 0.991
55.3735 1.093
55.3841 1.195
55.3946 1.123
55.4051 1.522
55.4156 1.358
55.4262 1.951
55.4367 1.634
55.4472 1.654
55.4577 2.032
55.4683 1.828
55.4788 2.145
55.4893 2.328
55.4998 2.533
55.5103 2.696
55.5209 2.778
55.5314 2.717
55.5419 2.962
55.5524 3.054
55.5630 3.329
55.5735 2.911
55.5840 2.696
55.5945 2.982
55.6050 2.676
55.6156 2.778
55.6261 2.655
55.6366 2.359
55.6471 2.390
55.6577 2.104
55.6682 2.247
55.6787 2.073
55.6892 1.859
55.6998 1.654
55.7103 1.563
55.7208 1.256
55.7313 1.256
55.7418 1.246
55.7524 1.195
55.7629 1.215
55.7734 1.021
55.7839 0.756
55.7945 0.909
55.8050 0.827
55.8155 0.807
55.8260 0.684
55.8365 0.899
55.8471 0.531
55.8576 0.643
55.8681 0.541
55.8786 0.439
55.8892 0.572
55.8997 0.429
55.9102 0.460
55.9207 0.480
55.9312 0.368
55.9418 0.429
55.9523 0.429
55.9628 0.419
55.9733 0.460
55.9839 0.449
55.9944 0.408
56.0049 0.398
56.0154 0.357
56.0260 0.398
56.0365 0.357
56.0470 0.286
56.0575 0.388
56.0680 0.327
56.0786 0.276
56.0891 0.317
56.0996 0.357
56.1101 0.398
56.1207 0.388
56.1312 0.235
56.1417 0.398
56.1522 0.286
56.1627 0.388
56.1733 0.327
56.1838 0.276
56.1943 0.388
56.2048 0.286
56.2154 0.337
56.2259 0.408
56.2364 0.357
56.2469 0.306
56.2574 0.449
56.2680 0.327
56.2785 0.337
56.2890 0.541
56.2995 0.357
56.3101 0.398
56.3206 0.460
56.3311 0.439
56.3416 0.470
56.3522 0.368
56.3627 0.347
56.3732 0.357
56.3837 0.429
56.3942 0.541
56.4048 0.378
56.4153 0.470
56.4258 0.715
56.4363 0.449
56.4469 0.531
56.4574 0.715
56.4679 0.694
56.4784 0.786
56.4889 0.674
56.4995 0.888
56.5100 0.878
56.5205 0.878
56.5310 0.807
56.5416 1.144
56.5521 1.225
56.5626 1.246
56.5731 1.348
56.5837 1.450
56.5942 1.552
56.6047 1.644
56.6152 1.654
56.6257 1.726
56.6363 1.910
56.6468 1.757
56.6573 2.226
56.6678 2.196
56.6784 2.431
56.6889 2.951
56.6994 2.778
56.7099 2.921
56.7204 2.686
56.7310 3.258
56.7415 3.002
56.7520 2.921
56.7625 2.870
56.7731 3.156
56.7836 2.686
56.7941 2.962
56.8046 2.849
56.8151 2.247
56.8257 2.226
56.8362 2.267
56.8467 2.185
56.8572 1.920
56.8678 1.848
56.8783 2.042
56.8888 1.593
56.8993 1.746
56.9099 1.685
56.9204 1.501
56.9309 1.481
56.9414 1.368
56.9519 1.379
56.9625 1.297
56.9730 1.154
56.9835 1.001
56.9940 0.858
57.0046 0.868
57.0151 0.950
57.0256 0.848
57.0361 0.674
57.0466 0.786
57.0572 0.766
57.0677 0.654
57.0782 0.582
57.0887 0.480
57.0993 0.500
57.1098 0.623
57.1203 0.439
57.1308 0.480
57.1413 0.398
57.1519 0.470
57.1624 0.439
57.1729 0.460
57.1834 0.541
57.1940 0.408
57.2045 0.357
57.2150 0.327
57.2255 0.378
57.2361 0.347
57.2466 0.317
57.2571 0.255
57.2676 0.317
57.2781 0.296
57.2887 0.398
57.2992 0.317
57.3097 0.429
57.3202 0.327
57.3308 0.378
57.3413 0.398
57.3518 0.306
57.3623 0.286
57.3728 0.296
57.3834 0.286
57.3939 0.266
57.4044 0.388
57.4149 0.296
57.4255 0.276
57.4360 0.255
57.4465 0.368
57.4570 0.357
57.4676 0.317
57.4781 0.378
57.4886 0.378
57.4991 0.286
57.5096 0.419
57.5202 0.296
57.5307 0.337
57.5412 0.398
57.5517 0.347
57.5623 0.500
57.5728 0.388
57.5833 0.551
57.5938 0.419
57.6043 0.500
57.6149 0.429
57.6254 0.511
57.6359 0.551
57.6464 0.460
57.6570 0.480
57.6675 0.623
57.6780 0.603
57.6885 0.449
57.6990 0.480
57.7096 0.480
57.7201 0.490
57.7306 0.460
57.7411 0.429
57.7517 0.500
57.7622 0.470
57.7727 0.460
57.7832 0.378
57.7938 0.470
57.8043 0.368
57.8148 0.388
57.8253 0.500
57.8358 0.368
57.8464 0.266
57.8569 0.419
57.8674 0.357
57.8779 0.388
57.8885 0.398
57.8990 0.408
57.9095 0.225
57.9200 0.235
57.9305 0.327
57.9411 0.398
57.9516 0.276
57.9621 0.408
57.9726 0.296
57.9832 0.327
57.9937 0.398
58.0042 0.368
58.0147 0.306
58.0252 0.398
58.0358 0.286
58.0463 0.429
58.0568 0.408
58.0673 0.439
58.0779 0.368
58.0884 0.470
58.0989 0.582
58.1094 0.408
58.1200 0.470
58.1305 0.511
58.1410 0.408
58.1515 0.827
58.1620 0.643
58.1726 0.909
58.1831 0.623
58.1936 0.715
58.2041 0.674
58.2147 0.715
58.2252 0.909
58.2357 1.052
58.2462 0.970
58.2567 1.297
58.2673 1.042
58.2778 1.195
58.2883 1.103
58.2988 1.338
58.3094 1.481
58.3199 1.450
58.3304 1.409
58.3409 1.501
58.3515 1.573
58.3620 1.726
58.3725 1.736
58.3830 1.532
58.3935 1.930
58.4041 1.634
58.4146 1.593
58.4251 1.450
58.4356 1.481
58.4462 1.420
58.4567 1.675
58.4672 1.358
58.4777 1.093
58.4882 1.287
58.4988 1.123
58.5093 1.246
58.5198 1.011
58.5303 0.756
58.5409 0.899
58.5514 0.868
58.5619 0.848
58.5724 0.725
58.5829 0.715
58.5935 0.531
58.6040 0.654
58.6145 0.582
58.6250 0.521
58.6356 0.480
58.6461 0.408
58.6566 0.470
58.6671 0.551
58.6777 0.470
58.6882 0.408
58.6987 0.490
58.7092 0.398
58.7197 0.317
58.7303 0.388
58.7408 0.347
58.7513 0.511
58.7618 0.296
58.7724 0.357
58.7829 0.266
58.7934 0.327
58.8039 0.235
58.8144 0.347
58.8250 0.296
58.8355 0.337
58.8460 0.368
58.8565 0.225
58.8671 0.225
58.8776 0.194
58.8881 0.235
58.8986 0.225
58.9091 0.235
58.9197 0.204
58.9302 0.204
58.9407 0.163
58.9512 0.255
58.9618 0.214
58.9723 0.327
58.9828 0.235
58.9933 0.153
59.0039 0.235
59.0144 0.255
59.0249 0.133
59.0354 0.184
59.0459 0.194
59.0565 0.112
59.0670 0.184
59.0775 0.296
59.0880 0.204
59.0986 0.276
59.1091 0.204
59.1196 0.225
59.1301 0.204
59.1406 0.153
59.1512 0.214
59.1617 0.174
59.1722 0.163
59.1827 0.153
59.1933 0.194
59.2038 0.225
59.2143 0.235
59.2248 0.204
59.2354 0.245
59.2459 0.214
59.2564 0.225
59.2669 0.235
59.2774 0.214
59.2880 0.296
59.2985 0.245
59.3090 0.143
59.3195 0.225
59.3301 0.194
59.3406 0.266
59.3511 0.235
59.3616 0.143
59.3721 0.255
59.3827 0.245
59.3932 0.112
59.4037 0.092
59.4142 0.214
59.4248 0.153
59.4353 0.143
59.4458 0.143
59.4563 0.306
59.4668 0.133
59.4774 0.174
59.4879 0.174
59.4984 0.204
59.5089 0.174
59.5195 0.153
59.5300 0.194
59.5405 0.143
59.5510 0.276
59.5616 0.163
59.5721 0.235
59.5826 0.153
59.5931 0.143
59.6036 0.306
59.6142 0.327
59.6247 0.266
59.6352 0.286
59.6457 0.184
59.6563 0.194
59.6668 0.163
59.6773 0.317
59.6878 0.255
59.6983 0.163
59.7089 0.245
59.7194 0.235
59.7299 0.368
59.7404 0.245
59.7510 0.286
59.7615 0.266
59.7720 0.143
59.7825 0.276
59.7931 0.204
59.8036 0.266
59.8141 0.194
59.8246 0.286
59.8351 0.225
59.8457 0.306
59.8562 0.214
59.8667 0.225
59.8772 0.235
59.8878 0.153
59.8983 0.194
59.9088 0.214
59.9193 0.174
59.9298 0.214
59.9404 0.163
59.9509 0.174
59.9614 0.255
59.9719 0.123
59.9825 0.194
59.9930 0.204
60.0035 0.163
60.0140 0.133
60.0245 0.245
60.0351 0.133
60.0456 0.174
60.0561 0.184
60.0666 0.214
60.0772 0.245
60.0877 0.163
60.0982 0.286
60.1087 0.153
60.1193 0.184
60.1298 0.194
60.1403 0.123
60.1508 0.133
60.1613 0.194
60.1719 0.204
60.1824 0.102
60.1929 0.194
60.2034 0.174
60.2140 0.245
60.2245 0.286
60.2350 0.102
60.2455 0.123
60.2560 0.153
60.2666 0.184
60.2771 0.174
60.2876 0.174
60.2981 0.184
60.3087 0.204
60.3192 0.133
60.3297 0.204
60.3402 0.102
60.3507 0.255
60.3613 0.184
60.3718 0.143
60.3823 0.214
60.3928 0.133
60.4034 0.214
60.4139 0.133
60.4244 0.133
60.4349 0.153
60.4455 0.153
60.4560 0.123
60.4665 0.276
60.4770 0.184
60.4875 0.296
60.4981 0.102
60.5086 0.163
60.5191 0.143
60.5296 0.194
60.5402 0.204
60.5507 0.174
60.5612 0.163
60.5717 0.194
60.5822 0.184
60.5928 0.102
60.6033 0.143
60.6138 0.174
60.6243 0.153
60.6349 0.184
60.6454 0.174
60.6559 0.143
60.6664 0.204
60.6770 0.174
60.6875 0.174
60.6980 0.184
60.7085 0.245
60.7190 0.143
60.7296 0.306
60.7401 0.143
60.7506 0.143
60.7611 0.214
60.7717 0.214
60.7822 0.266
60.7927 0.225
60.8032 0.102
60.8137 0.123
60.8243 0.255
60.8348 0.276
60.8453 0.245
60.8558 0.214
60.8664 0.225
60.8769 0.214
60.8874 0.235
60.8979 0.245
60.9084 0.153
60.9190 0.204
60.9295 0.235
60.9400 0.184
60.9505 0.235
60.9611 0.194
60.9716 0.276
60.9821 0.214
60.9926 0.123
61.0032 0.235
61.0137 0.286
61.0242 0.163
61.0347 0.204
61.0452 0.184
61.0558 0.235
61.0663 0.266
61.0768 0.255
61.0873 0.286
61.0979 0.266
61.1084 0.255
61.1189 0.163
61.1294 0.255
61.1399 0.296
61.1505 0.204
61.1610 0.235
61.1715 0.266
61.1820 0.388
61.1926 0.296
61.2031 0.255
61.2136 0.266
61.2241 0.194
61.2346 0.276
61.2452 0.317
61.2557 0.245
61.2662 0.245
61.2767 0.327
61.2873 0.398
61.2978 0.296
61.3083 0.337
61.3188 0.306
61.3294 0.398
61.3399 0.317
61.3504 0.460
61.3609 0.357
61.3714 0.286
61.3820 0.357
61.3925 0.572
61.4030 0.562
61.4135 0.470
61.4241 0.419
61.4346 0.572
61.4451 0.470
61.4556 0.368
61.4661 0.500
61.4767 0.592
61.4872 0.572
61.4977 0.868
61.5082 0.664
61.5188 0.878
61.5293 0.797
61.5398 0.919
61.5503 1.021
61.5609 0.807
61.5714 1.103
61.5819 1.083
61.5924 1.011
61.6029 1.225
61.6135 1.277
61.6240 1.368
61.6345 1.297
61.6450 1.307
61.6556 1.481
61.6661 1.716
61.6766 1.430
61.6871 1.859
61.6976 2.104
61.7082 2.073
61.7187 2.267
61.7292 2.022
61.7397 2.614
61.7503 2.686
61.7608 2.859
61.7713 3.013
61.7818 2.706
61.7923 2.941
61.8029 3.350
61.8134 3.329
61.8239 3.493
61.8344 3.533
61.8450 3.819
61.8555 3.697
61.8660 3.268
61.8765 4.126
61.8871 3.738
61.8976 3.932
61.9081 3.309
61.9186 4.105
61.9291 3.391
61.9397 3.615
61.9502 3.748
61.9607 3.329
61.9712 3.564
61.9818 3.370
61.9923 2.717
62.0028 3.043
62.0133 3.074
62.0238 2.911
62.0344 3.002
62.0449 2.614
62.0554 2.951
62.0659 2.431
62.0765 2.553
62.0870 2.941
62.0975 2.328
62.1080 2.665
62.1185 2.594
62.1291 2.522
62.1396 2.635
62.1501 2.512
62.1606 2.747
62.1712 2.737
62.1817 2.686
62.1922 2.727
62.2027 2.543
62.2133 2.420
62.2238 2.522
62.2343 2.257
62.2448 2.471
62.2553 2.155
62.2659 1.920
62.2764 2.083
62.2869 2.022
62.2974 1.705
62.3080 1.583
62.3185 1.511
62.3290 1.420
62.3395 1.307
62.3500 1.450
62.3606 1.215
62.3711 1.174
62.3816 1.103
62.3921 1.093
62.4027 1.021
62.4132 1.001
62.4237 0.909
62.4342 0.766
62.4448 0.878
62.4553 0.725
62.4658 0.654
62.4763 0.664
62.4868 0.715
62.4974 0.756
62.5079 0.674
62.5184 0.490
62.5289 0.613
62.5395 0.429
62.5500 0.500
62.5605 0.551
62.5710 0.398
62.5815 0.419
62.5921 0.398
62.6026 0.419
62.6131 0.398
62.6236 0.378
62.6342 0.286
62.6447 0.266
62.6552 0.276
62.6657 0.337
62.6762 0.368
62.6868 0.439
62.6973 0.419
62.7078 0.531
62.7183 0.296
62.7289 0.317
62.7394 0.276
62.7499 0.245
62.7604 0.286
62.7710 0.255
62.7815 0.225
62.7920 0.327
62.8025 0.276
62.8130 0.276
62.8236 0.184
62.8341 0.276
62.8446 0.225
62.8551 0.327
62.8657 0.194
62.8762 0.245
62.8867 0.286
62.8972 0.225
62.9077 0.153
62.9183 0.214
62.9288 0.255
62.9393 0.276
62.9498 0.204
62.9604 0.194
62.9709 0.204
62.9814 0.194
62.9919 0.194
63.0025 0.133
63.0130 0.194
63.0235 0.153
63.0340 0.255
63.0445 0.204
63.0551 0.194
63.0656 0.184
63.0761 0.347
63.0866 0.174
63.0972 0.266
63.1077 0.194
63.1182 0.204
63.1287 0.214
63.1392 0.204
63.1498 0.123
63.1603 0.133
63.1708 0.163
63.1813 0.225
63.1919 0.184
63.2024 0.163
63.2129 0.174
63.2234 0.112
63.2339 0.143
63.2445 0.214
63.2550 0.255
63.2655 0.133
63.2760 0.214
63.2866 0.143
63.2971 0.194
63.3076 0.184
63.3181 0.123
63.3287 0.194
63.3392 0.204
63.3497 0.163
63.3602 0.378
63.3707 0.143
63.3813 0.174
63.3918 0.163
63.4023 0.255
63.4128 0.204
63.4234 0.204
63.4339 0.174
63.4444 0.123
63.4549 0.143
63.4654 0.174
63.4760 0.276
63.4865 0.204
63.4970 0.225
63.5075 0.184
63.5181 0.184
63.5286 0.163
63.5391 0.153
63.5496 0.112
63.5601 0.204
63.5707 0.225
63.5812 0.204
63.5917 0.153
63.6022 0.225
63.6128 0.174
63.6233 0.194
63.6338 0.184
63.6443 0.245
63.6549 0.174
63.6654 0.306
63.6759 0.174
63.6864 0.204
63.6969 0.245
63.7075 0.214
63.7180 0.266
63.7285 0.194
63.7390 0.214
63.7496 0.235
63.7601 0.276
63.7706 0.225
63.7811 0.368
63.7916 0.174
63.8022 0.255
63.8127 0.163
63.8232 0.296
63.8337 0.184
63.8443 0.357
63.8548 0.235
63.8653 0.398
63.8758 0.327
63.8864 0.388
63.8969 0.245
63.9074 0.347
63.9179 0.439
63.9284 0.327
63.9390 0.327
63.9495 0.255
63.9600 0.429
63.9705 0.398
63.9811 0.439
63.9916 0.500
64.0021 0.480
64.0126 0.470
64.0231 0.419
64.0337 0.654
64.0442 0.633
64.0547 0.664
64.0652 0.643
64.0758 0.531
64.0863 0.500
64.0968 0.551
64.1073 0.449
64.1178 0.511
64.1284 0.705
64.1389 0.541
64.1494 0.449
64.1599 0.429
64.1705 0.551
64.1810 0.449
64.1915 0.480
64.2020 0.368
64.2126 0.306
64.2231 0.378
64.2336 0.470
64.2441 0.429
64.2546 0.245
64.2652 0.296
64.2757 0.266
64.2862 0.306
64.2967 0.327
64.3073 0.317
64.3178 0.276
64.3283 0.245
64.3388 0.286
64.3493 0.266
64.3599 0.163
64.3704 0.225
64.3809 0.276
64.3914 0.214
64.4020 0.286
64.4125 0.245
64.4230 0.153
64.4335 0.245
64.4440 0.286
64.4546 0.174
64.4651 0.184
64.4756 0.225
64.4861 0.214
64.4967 0.286
64.5072 0.174
64.5177 0.214
64.5282 0.296
64.5388 0.266
64.5493 0.225
64.5598 0.286
64.5703 0.286
64.5808 0.245
64.5914 0.276
64.6019 0.255
64.6124 0.317
64.6229 0.214
64.6335 0.286
64.6440 0.266
64.6545 0.347
64.6650 0.276
64.6755 0.347
64.6861 0.266
64.6966 0.245
64.7071 0.276
64.7176 0.266
64.7282 0.235
64.7387 0.225
64.7492 0.245
64.7597 0.296
64.7703 0.235
64.7808 0.235
64.7913 0.276
64.8018 0.306
64.8123 0.276
64.8229 0.245
64.8334 0.245
64.8439 0.235
64.8544 0.306
64.8650 0.245
64.8755 0.184
64.8860 0.153
64.8965 0.245
64.9070 0.337
64.9176 0.235
64.9281 0.184
64.9386 0.225
64.9491 0.174
64.9597 0.214
64.9702 0.204
64.9807 0.184
64.9912 0.194
65.0017 0.235
65.0123 0.163
65.0228 0.153
65.0333 0.133
65.0438 0.204
65.0544 0.194
65.0649 0.163
65.0754 0.204
65.0859 0.163
65.0965 0.337
65.1070 0.143
65.1175 0.143
65.1280 0.204
65.1385 0.235
65.1491 0.235
65.1596 0.204
65.1701 0.214
65.1806 0.123
65.1912 0.266
65.2017 0.214
65.2122 0.214
65.2227 0.133
65.2332 0.276
65.2438 0.194
65.2543 0.194
65.2648 0.214
65.2753 0.276
65.2859 0.204
65.2964 0.194
65.3069 0.225
65.3174 0.276
65.3279 0.276
65.3385 0.204
65.3490 0.194
65.3595 0.276
65.3700 0.225
65.3806 0.266
65.3911 0.245
65.4016 0.245
65.4121 0.235
65.4227 0.388
65.4332 0.214
65.4437 0.235
65.4542 0.286
65.4647 0.266
65.4753 0.306
65.4858 0.317
65.4963 0.276
65.5068 0.347
65.5174 0.306
65.5279 0.245
65.5384 0.306
65.5489 0.296
65.5594 0.143
65.5700 0.286
65.5805 0.235
65.5910 0.276
65.6015 0.245
65.6121 0.245
65.6226 0.235
65.6331 0.266
65.6436 0.337
65.6542 0.214
65.6647 0.174
65.6752 0.133
65.6857 0.327
65.6962 0.245
65.7068 0.296
65.7173 0.276
65.7278 0.286
65.7383 0.235
65.7489 0.347
65.7594 0.276
65.7699 0.317
65.7804 0.460
65.7909 0.388
65.8015 0.357
65.8120 0.266
65.8225 0.347
65.8330 0.460
65.8436 0.470
65.8541 0.592
65.8646 0.317
65.8751 0.419
65.8856 0.408
65.8962 0.439
65.9067 0.500
65.9172 0.500
65.9277 0.398
65.9383 0.613
65.9488 0.541
65.9593 0.633
65.9698 0.439
65.9804 0.460
65.9909 0.623
66.0014 0.470
66.0119 0.633
66.0224 0.603
66.0330 0.480
66.0435 0.664
66.0540 0.684
66.0645 0.500
66.0751 0.582
66.0856 0.572
66.0961 0.521
66.1066 0.582
66.1171 0.643
66.1277 0.551
66.1382 0.429
66.1487 0.521
66.1592 0.643
66.1698 0.500
66.1803 0.449
66.1908 0.521
66.2013 0.592
66.2119 0.511
66.2224 0.439
66.2329 0.551
66.2434 0.776
66.2539 0.746
66.2645 0.633
66.2750 0.766
66.2855 0.694
66.2960 0.654
66.3066 0.786
66.3171 0.735
66.3276 0.766
66.3381 0.827
66.3486 0.786
66.3592 1.011
66.3697 1.011
66.3802 0.950
66.3907 1.174
66.4013 0.991
66.4118 0.980
66.4223 1.021
66.4328 0.950
66.4433 1.174
66.4539 0.848
66.4644 1.072
66.4749 1.164
66.4854 1.021
66.4960 0.868
66.5065 0.786
66.5170 0.746
66.5275 0.919
66.5381 0.654
66.5486 0.725
66.5591 0.664
66.5696 0.643
66.5801 0.643
66.5907 0.480
66.6012 0.633
66.6117 0.500
66.6222 0.439
66.6328 0.408
66.6433 0.449
66.6538 0.388
66.6643 0.449
66.6748 0.470
66.6854 0.429
66.6959 0.337
66.7064 0.368
66.7169 0.368
66.7275 0.255
66.7380 0.235
66.7485 0.327
66.7590 0.327
66.7695 0.286
66.7801 0.368
66.7906 0.235
66.8011 0.225
66.8116 0.306
66.8222 0.388
66.8327 0.235
66.8432 0.266
66.8537 0.337
66.8643 0.235
66.8748 0.153
66.8853 0.174
66.8958 0.245
66.9063 0.276
66.9169 0.235
66.9274 0.317
66.9379 0.102
66.9484 0.214
66.9590 0.184
66.9695 0.245
66.9800 0.194
66.9905 0.194
67.0010 0.306
67.0116 0.327
67.0221 0.347
67.0326 0.276
67.0431 0.286
67.0537 0.337
67.0642 0.306
67.0747 0.194
67.0852 0.398
67.0958 0.235
67.1063 0.296
67.1168 0.378
67.1273 0.347
67.1378 0.184
67.1484 0.266
67.1589 0.255
67.1694 0.347
67.1799 0.286
67.1905 0.398
67.2010 0.419
67.2115 0.429
67.2220 0.317
67.2325 0.368
67.2431 0.327
67.2536 0.408
67.2641 0.419
67.2746 0.460
67.2852 0.572
67.2957 0.439
67.3062 0.500
67.3167 0.603
67.3272 0.603
67.3378 0.439
67.3483 0.623
67.3588 0.746
67.3693 0.480
67.3799 0.572
67.3904 0.654
67.4009 0.643
67.4114 0.633
67.4220 0.817
67.4325 0.827
67.4430 0.786
67.4535 0.899
67.4640 0.878
67.4746 0.725
67.4851 0.909
67.4956 0.878
67.5061 1.021
67.5167 1.134
67.5272 1.062
67.5377 0.919
67.5482 0.940
67.5587 1.011
67.5693 0.960
67.5798 0.991
67.5903 0.684
67.6008 0.909
67.6114 0.950
67.6219 0.746
67.6324 0.970
67.6429 0.674
67.6534 0.725
67.6640 0.786
67.6745 0.848
67.6850 0.654
67.6955 0.500
67.7061 0.480
67.7166 0.521
67.7271 0.551
67.7376 0.429
67.7482 0.470
67.7587 0.521
67.7692 0.460
67.7797 0.419
67.7902 0.480
67.8008 0.439
67.8113 0.327
67.8218 0.449
67.8323 0.347
67.8429 0.368
67.8534 0.306
67.8639 0.276
67.8744 0.398
67.8849 0.286
67.8955 0.378
67.9060 0.306
67.9165 0.378
67.9270 0.317
67.9376 0.337
67.9481 0.296
67.9586 0.327
67.9691 0.235
67.9797 0.368
67.9902 0.378
68.0007 0.378
68.0112 0.337
68.0217 0.368
68.0323 0.357
68.0428 0.327
68.0533 0.317
68.0638 0.255
68.0744 0.439
68.0849 0.317
68.0954 0.511
68.1059 0.337
68.1164 0.388
68.1270 0.357
68.1375 0.460
68.1480 0.327
68.1585 0.357
68.1691 0.419
68.1796 0.408
68.1901 0.327
68.2006 0.398
68.2111 0.429
68.2217 0.449
68.2322 0.357
68.2427 0.357
68.2532 0.347
68.2638 0.317
68.2743 0.511
68.2848 0.470
68.2953 0.480
68.3059 0.429
68.3164 0.460
68.3269 0.378
68.3374 0.337
68.3479 0.449
68.3585 0.470
68.3690 0.490
68.3795 0.398
68.3900 0.408
68.4006 0.368
68.4111 0.286
68.4216 0.327
68.4321 0.306
68.4426 0.398
68.4532 0.296
68.4637 0.347
68.4742 0.286
68.4847 0.266
68.4953 0.276
68.5058 0.306
68.5163 0.296
68.5268 0.378
68.5373 0.317
68.5479 0.511
68.5584 0.235
68.5689 0.194
68.5794 0.276
68.5900 0.378
68.6005 0.337
68.6110 0.184
68.6215 0.204
68.6321 0.266
68.6426 0.225
68.6531 0.255
68.6636 0.337
68.6741 0.133
68.6847 0.214
68.6952 0.255
68.7057 0.245
68.7162 0.235
68.7268 0.225
68.7373 0.163
68.7478 0.225
68.7583 0.214
68.7688 0.174
68.7794 0.245
68.7899 0.163
68.8004 0.153
68.8109 0.133
68.8215 0.225
68.8320 0.163
68.8425 0.174
68.8530 0.153
68.8636 0.143
68.8741 0.163
68.8846 0.225
68.8951 0.174
68.9056 0.153
68.9162 0.143
68.9267 0.214
68.9372 0.255
68.9477 0.184
68.9583 0.235
68.9688 0.174
68.9793 0.153
68.9898 0.163
69.0003 0.235
69.0109 0.153
69.0214 0.225
69.0319 0.204
69.0424 0.214
69.0530 0.153
69.0635 0.163
69.0740 0.163
69.0845 0.204
69.0950 0.255
69.1056 0.255
69.1161 0.194
69.1266 0.235
69.1371 0.235
69.1477 0.286
69.1582 0.204
69.1687 0.204
69.1792 0.235
69.1898 0.276
69.2003 0.266
69.2108 0.388
69.2213 0.235
69.2318 0.286
69.2424 0.306
69.2529 0.357
69.2634 0.337
69.2739 0.286
69.2845 0.368
69.2950 0.266
69.3055 0.388
69.3160 0.214
69.3265 0.449
69.3371 0.317
69.3476 0.306
69.3581 0.337
69.3686 0.378
69.3792 0.419
69.3897 0.408
69.4002 0.449
69.4107 0.347
69.4212 0.408
69.4318 0.490
69.4423 0.460
69.4528 0.388
69.4633 0.511
69.4739 0.705
69.4844 0.521
69.4949 0.633
69.5054 0.643
69.5160 0.603
69.5265 0.511
69.5370 0.582
69.5475 0.674
69.5580 0.511
69.5686 0.398
69.5791 0.582
69.5896 0.572
69.6001 0.562
69.6107 0.419
69.6212 0.460
69.6317 0.541
69.6422 0.449
69.6527 0.398
69.6633 0.317
69.6738 0.419
69.6843 0.398
69.6948 0.337
69.7054 0.419
69.7159 0.296
69.7264 0.388
69.7369 0.429
69.7475 0.357
69.7580 0.306
69.7685 0.460
69.7790 0.306
69.7895 0.225
69.8001 0.388
69.8106 0.368
69.8211 0.357
69.8316 0.429
69.8422 0.429
69.8527 0.419
69.8632 0.551
69.8737 0.398
69.8842 0.408
69.8948 0.419
69.9053 0.368
69.9158 0.470
69.9263 0.408
69.9369 0.449
69.9474 0.439
69.9579 0.531
69.9684 0.511
69.9789 0.603
69.9895 0.511
70.0000 0.654
70.0105 0.694
70.0210 0.633
70.0316 0.623
70.0421 0.786
70.0526 0.807
70.0631 0.878
70.0737 0.827
70.0842 0.807
70.0947 0.940
70.1052 0.766
70.1157 0.878
70.1263 1.205
70.1368 1.164
70.1473 1.195
70.1578 1.297
70.1684 1.491
70.1789 1.328
70.1894 1.501
70.1999 1.501
70.2104 1.532
70.2210 1.542
70.2315 1.511
70.2420 1.511
70.2525 1.532
70.2631 1.481
70.2736 1.501
70.2841 1.307
70.2946 1.389
70.3052 1.277
70.3157 1.072
70.3262 1.246
70.3367 1.215
70.3472 1.154
70.3578 0.919
70.3683 0.940
70.3788 1.021
70.3893 0.980
70.3999 0.970
70.4104 0.817
70.4209 0.786
70.4314 0.756
70.4419 0.705
70.4525 0.705
70.4630 0.643
70.4735 0.592
70.4840 0.654
70.4946 0.603
70.5051 0.562
70.5156 0.480
70.5261 0.541
70.5366 0.562
70.5472 0.521
70.5577 0.347
70.5682 0.449
70.5787 0.419
70.5893 0.347
70.5998 0.327
70.6103 0.337
70.6208 0.398
70.6314 0.378
70.6419 0.296
70.6524 0.276
70.6629 0.388
70.6734 0.317
70.6840 0.276
70.6945 0.286
70.7050 0.347
70.7155 0.347
70.7261 0.214
70.7366 0.194
70.7471 0.214
70.7576 0.276
70.7681 0.194
70.7787 0.214
70.7892 0.296
70.7997 0.225
70.8102 0.214
70.8208 0.255
70.8313 0.255
70.8418 0.235
70.8523 0.214
70.8628 0.143
70.8734 0.235
70.8839 0.245
70.8944 0.225
70.9049 0.317
70.9155 0.174
70.9260 0.214
70.9365 0.153
70.9470 0.235
70.9576 0.255
70.9681 0.153
70.9786 0.143
70.9891 0.225
70.9996 0.266
71.0102 0.184
71.0207 0.225
71.0312 0.214
71.0417 0.235
71.0523 0.225
71.0628 0.276
71.0733 0.225
71.0838 0.245
71.0943 0.286
71.1049 0.214
71.1154 0.296
71.1259 0.225
71.1364 0.163
71.1470 0.225
71.1575 0.347
71.1680 0.327
71.1785 0.296
71.1891 0.388
71.1996 0.296
71.2101 0.317
71.2206 0.408
71.2311 0.368
71.2417 0.327
71.2522 0.357
71.2627 0.286
71.2732 0.388
71.2838 0.276
71.2943 0.368
71.3048 0.378
71.3153 0.368
71.3258 0.398
71.3364 0.327
71.3469 0.408
71.3574 0.429
71.3679 0.306
71.3785 0.521
71.3890 0.500
71.3995 0.419
71.4100 0.480
71.4205 0.490
71.4311 0.562
71.4416 0.551
71.4521 0.388
71.4626 0.531
71.4732 0.541
71.4837 0.664
71.4942 0.490
71.5047 0.582
71.5153 0.408
71.5258 0.582
71.5363 0.613
71.5468 0.541
71.5573 0.480
71.5679 0.439
71.5784 0.582
71.5889 0.521
71.5994 0.398
71.6100 0.490
71.6205 0.408
71.6310 0.521
71.6415 0.419
71.6520 0.551
71.6626 0.296
71.6731 0.470
71.6836 0.429
71.6941 0.429
71.7047 0.388
71.7152 0.429
71.7257 0.337
71.7362 0.419
71.7467 0.480
71.7573 0.439
71.7678 0.408
71.7783 0.419
71.7888 0.388
71.7994 0.317
71.8099 0.460
71.8204 0.470
71.8309 0.449
71.8415 0.439
71.8520 0.327
71.8625 0.419
71.8730 0.439
71.8835 0.521
71.8941 0.419
71.9046 0.500
71.9151 0.470
71.9256 0.511
71.9362 0.643
71.9467 0.490
71.9572 0.582
71.9677 0.521
71.9782 0.541
71.9888 0.582
71.9993 0.684
72.0098 0.541
72.0203 0.694
72.0309 0.715
72.0414 0.643
72.0519 0.725
72.0624 0.725
72.0730 0.654
72.0835 0.674
72.0940 0.664
72.1045 0.705
72.1150 0.746
72.1256 0.592
72.1361 0.776
72.1466 0.725
72.1571 0.827
72.1677 0.725
72.1782 0.684
72.1887 0.654
72.1992 0.888
72.2097 0.776
72.2203 0.929
72.2308 0.909
72.2413 0.909
72.2518 0.878
72.2624 1.072
72.2729 0.950
72.2834 1.001
72.2939 1.103
72.3044 1.348
72.3150 1.185
72.3255 1.287
72.3360 1.287
72.3465 1.399
72.3571 1.266
72.3676 1.205
72.3781 1.164
72.3886 1.256
72.3992 1.185
72.4097 1.246
72.4202 1.256
72.4307 1.256
72.4412 1.368
72.4518 1.236
72.4623 1.368
72.4728 1.185
72.4833 1.266
72.4939 1.113
72.5044 1.093
72.5149 0.899
72.5254 0.878
72.5359 0.960
72.5465 1.062
72.5570 1.021
72.5675 0.970
72.5780 0.746
72.5886 0.694
72.5991 0.582
72.6096 0.797
72.6201 0.633
72.6306 0.684
72.6412 0.613
72.6517 0.592
72.6622 0.531
72.6727 0.562
72.6833 0.582
72.6938 0.613
72.7043 0.470
72.7148 0.511
72.7254 0.439
72.7359 0.419
72.7464 0.419
72.7569 0.255
72.7674 0.398
72.7780 0.347
72.7885 0.327
72.7990 0.347
72.8095 0.357
72.8201 0.286
72.8306 0.286
72.8411 0.245
72.8516 0.347
72.8621 0.245
72.8727 0.337
72.8832 0.296
72.8937 0.306
72.9042 0.306
72.9148 0.225
72.9253 0.245
72.9358 0.255
72.9463 0.276
72.9569 0.153
72.9674 0.276
72.9779 0.174
72.9884 0.317
72.9989 0.214
73.0095 0.276
73.0200 0.184
73.0305 0.337
73.0410 0.225
73.0516 0.296
73.0621 0.204
73.0726 0.204
73.0831 0.286
73.0936 0.184
73.1042 0.235
73.1147 0.245
73.1252 0.194
73.1357 0.296
73.1463 0.204
73.1568 0.194
73.1673 0.286
73.1778 0.235
73.1883 0.174
73.1989 0.163
73.2094 0.225
73.2199 0.317
73.2304 0.245
73.2410 0.317
73.2515 0.214
73.2620 0.266
73.2725 0.296
73.2831 0.255
73.2936 0.266
73.3041 0.327
73.3146 0.266
73.3251 0.255
73.3357 0.286
73.3462 0.327
73.3567 0.347
73.3672 0.214
73.3778 0.245
73.3883 0.347
73.3988 0.276
73.4093 0.357
73.4198 0.255
73.4304 0.286
73.4409 0.357
73.4514 0.551
73.4619 0.490
73.4725 0.388
73.4830 0.368
73.4935 0.398
73.5040 0.327
73.5146 0.613
73.5251 0.582
73.5356 0.460
73.5461 0.439
73.5566 0.480
73.5672 0.511
73.5777 0.572
73.5882 0.551
73.5987 0.398
73.6093 0.500
73.6198 0.592
73.6303 0.562
73.6408 0.460
73.6513 0.460
73.6619 0.470
73.6724 0.398
73.6829 0.388
73.6934 0.398
73.7040 0.408
73.7145 0.398
73.7250 0.317
73.7355 0.347
73.7460 0.357
73.7566 0.388
73.7671 0.317
73.7776 0.419
73.7881 0.337
73.7987 0.368
73.8092 0.337
73.8197 0.214
73.8302 0.357
73.8408 0.276
73.8513 0.286
73.8618 0.317
73.8723 0.204
73.8828 0.235
73.8934 0.286
73.9039 0.296
73.9144 0.204
73.9249 0.235
73.9355 0.286
73.9460 0.378
73.9565 0.276
73.9670 0.184
73.9775 0.245
73.9881 0.235
73.9986 0.378
74.0091 0.214
74.0196 0.266
74.0302 0.276
74.0407 0.214
74.0512 0.245
74.0617 0.276
74.0722 0.327
74.0828 0.317
74.0933 0.266
74.1038 0.245
74.1143 0.327
74.1249 0.337
74.1354 0.429
74.1459 0.398
74.1564 0.317
74.1670 0.378
74.1775 0.276
74.1880 0.347
74.1985 0.327
74.2090 0.449
74.2196 0.480
74.2301 0.388
74.2406 0.531
74.2511 0.388
74.2617 0.562
74.2722 0.603
74.2827 0.531
74.2932 0.592
74.3037 0.654
74.3143 0.623
74.3248 0.797
74.3353 0.705
74.3458 0.725
74.3564 0.674
74.3669 0.735
74.3774 0.929
74.3879 1.021
74.3985 0.960
74.4090 1.042
74.4195 0.960
74.4300 1.021
74.4405 0.848
74.4511 1.062
74.4616 0.970
74.4721 1.113
74.4826 0.837
74.4932 1.338
74.5037 0.807
74.5142 0.899
74.5247 1.001
74.5352 0.970
74.5458 0.766
74.5563 0.827
74.5668 0.950
74.5773 0.797
74.5879 0.746
74.5984 0.684
74.6089 0.694
74.6194 0.470
74.6299 0.623
74.6405 0.715
74.6510 0.613
74.6615 0.460
74.6720 0.562
74.6826 0.470
74.6931 0.398
74.7036 0.317
74.7141 0.378
74.7247 0.429
74.7352 0.531
74.7457 0.306
74.7562 0.531
74.7667 0.419
74.7773 0.317
74.7878 0.296
74.7983 0.327
74.8088 0.368
74.8194 0.429
74.8299 0.357
74.8404 0.286
74.8509 0.317
74.8614 0.306
74.8720 0.388
74.8825 0.388
74.8930 0.337
74.9035 0.337
74.9141 0.306
74.9246 0.214
74.9351 0.357
74.9456 0.337
74.9561 0.388
74.9667 0.214
74.9772 0.306
74.9877 0.276
74.9982 0.286
75.0088 0.255
75.0193 0.266
75.0298 0.296
75.0403 0.276
75.0509 0.266
75.0614 0.306
75.0719 0.276
75.0824 0.408
75.0929 0.368
75.1035 0.347
75.1140 0.368
75.1245 0.317
75.1350 0.378
75.1456 0.347
75.1561 0.296
75.1666 0.368
75.1771 0.480
75.1876 0.347
75.1982 0.347
75.2087 0.327
75.2192 0.378
75.2297 0.317
75.2403 0.327
75.2508 0.327
75.2613 0.317
75.2718 0.235
75.2824 0.296
75.2929 0.337
75.3034 0.245
75.3139 0.235
75.3244 0.368
75.3350 0.368
75.3455 0.266
75.3560 0.266
75.3665 0.245
75.3771 0.296
75.3876 0.317
75.3981 0.266
75.4086 0.296
75.4191 0.306
75.4297 0.296
75.4402 0.266
75.4507 0.276
75.4612 0.255
75.4718 0.235
75.4823 0.255
75.4928 0.317
75.5033 0.276
75.5138 0.266
75.5244 0.306
75.5349 0.286
75.5454 0.347
75.5559 0.276
75.5665 0.204
75.5770 0.306
75.5875 0.337
75.5980 0.235
75.6086 0.255
75.6191 0.245
75.6296 0.419
75.6401 0.378
75.6506 0.286
75.6612 0.276
75.6717 0.347
75.6822 0.368
75.6927 0.521
75.7033 0.357
75.7138 0.398
75.7243 0.429
75.7348 0.439
75.7453 0.225
75.7559 0.419
75.7664 0.255
75.7769 0.470
75.7874 0.357
75.7980 0.398
75.8085 0.500
75.8190 0.327
75.8295 0.419
75.8400 0.306
75.8506 0.388
75.8611 0.378
75.8716 0.317
75.8821 0.378
75.8927 0.317
75.9032 0.398
75.9137 0.398
75.9242 0.347
75.9348 0.347
75.9453 0.327
75.9558 0.327
75.9663 0.286
75.9768 0.368
75.9874 0.357
75.9979 0.368
76.0084 0.378
76.0189 0.337
76.0295 0.388
76.0400 0.337
76.0505 0.296
76.0610 0.255
76.0715 0.245
76.0821 0.388
76.0926 0.388
76.1031 0.296
76.1136 0.388
76.1242 0.398
76.1347 0.286
76.1452 0.388
76.1557 0.296
76.1663 0.327
76.1768 0.255
76.1873 0.357
76.1978 0.296
76.2083 0.317
76.2189 0.357
76.2294 0.296
76.2399 0.398
76.2504 0.347
76.2610 0.317
76.2715 0.306
76.2820 0.327
76.2925 0.235
76.3030 0.306
76.3136 0.286
76.3241 0.419
76.3346 0.194
76.3451 0.306
76.3557 0.296
76.3662 0.286
76.3767 0.306
76.3872 0.276
76.3977 0.184
76.4083 0.214
76.4188 0.123
76.4293 0.245
76.4398 0.306
76.4504 0.235
76.4609 0.317
76.4714 0.174
76.4819 0.225
76.4925 0.153
76.5030 0.194
76.5135 0.204
76.5240 0.143
76.5345 0.153
76.5451 0.204
76.5556 0.163
76.5661 0.174
76.5766 0.174
76.5872 0.184
76.5977 0.306
76.6082 0.184
76.6187 0.143
76.6292 0.225
76.6398 0.123
76.6503 0.163
76.6608 0.214
76.6713 0.163
76.6819 0.214
76.6924 0.133
76.7029 0.143
76.7134 0.184
76.7240 0.327
76.7345 0.235
76.7450 0.133
76.7555 0.153
76.7660 0.082
76.7766 0.194
76.7871 0.184
76.7976 0.245
76.8081 0.194
76.8187 0.133
76.8292 0.174
76.8397 0.214
76.8502 0.163
76.8607 0.133
76.8713 0.235
76.8818 0.286
76.8923 0.143
76.9028 0.184
76.9134 0.163
76.9239 0.184
76.9344 0.163
76.9449 0.163
76.9554 0.235
76.9660 0.174
76.9765 0.102
76.9870 0.082
76.9975 0.153
77.0081 0.235
77.0186 0.194
77.0291 0.133
77.0396 0.184
77.0502 0.184
77.0607 0.255
77.0712 0.174
77.0817 0.194
77.0922 0.163
77.1028 0.163
77.1133 0.143
77.1238 0.153
77.1343 0.174
77.1449 0.102
77.1554 0.133
77.1659 0.174
77.1764 0.235
77.1869 0.235
77.1975 0.204
77.2080 0.184
77.2185 0.184
77.2290 0.225
77.2396 0.153
77.2501 0.225
77.2606 0.286
77.2711 0.194
77.2816 0.245
77.2922 0.276
77.3027 0.184
77.3132 0.296
77.3237 0.214
77.3343 0.306
77.3448 0.245
77.3553 0.306
77.3658 0.225
77.3764 0.255
77.3869 0.266
77.3974 0.276
77.4079 0.266
77.4184 0.347
77.4290 0.327
77.4395 0.408
77.4500 0.317
77.4605 0.306
77.4711 0.276
77.4816 0.306
77.4921 0.327
77.5026 0.286
77.5131 0.327
77.5237 0.337
77.5342 0.317
77.5447 0.357
77.5552 0.357
77.5658 0.357
77.5763 0.480
77.5868 0.266
77.5973 0.306
77.6079 0.306
77.6184 0.398
77.6289 0.551
77.6394 0.357
77.6499 0.511
77.6605 0.470
77.6710 0.337
77.6815 0.541
77.6920 0.592
77.7026 0.531
77.7131 0.460
77.7236 0.490
77.7341 0.562
77.7446 0.664
77.7552 0.592
77.7657 0.531
77.7762 0.776
77.7867 0.603
77.7973 0.654
77.8078 0.603
77.8183 0.613
77.8288 0.756
77.8393 0.827
77.8499 0.582
77.8604 0.613
77.8709 0.746
77.8814 0.684
77.8920 0.623
77.9025 0.715
77.9130 0.705
77.9235 0.899
77.9341 0.603
77.9446 0.766
77.9551 0.797
77.9656 0.756
77.9761 0.827
77.9867 0.837
77.9972 0.827
78.0077 0.858
78.0182 0.725
78.0288 0.684
78.0393 0.654
78.0498 0.613
78.0603 0.725
78.0708 0.633
78.0814 0.531
78.0919 0.654
78.1024 0.521
78.1129 0.664
78.1235 0.419
78.1340 0.684
78.1445 0.664
78.1550 0.603
78.1655 0.541
78.1761 0.460
78.1866 0.449
78.1971 0.357
78.2076 0.429
78.2182 0.337
78.2287 0.500
78.2392 0.306
78.2497 0.388
78.2603 0.511
78.2708 0.439
78.2813 0.470
78.2918 0.266
78.3023 0.398
78.3129 0.225
78.3234 0.347
78.3339 0.408
78.3444 0.357
78.3550 0.317
78.3655 0.306
78.3760 0.225
78.3865 0.276
78.3970 0.368
78.4076 0.266
78.4181 0.235
78.4286 0.235
78.4391 0.296
78.4497 0.368
78.4602 0.306
78.4707 0.306
78.4812 0.235
78.4918 0.174
78.5023 0.214
78.5128 0.337
78.5233 0.235
78.5338 0.235
78.5444 0.214
78.5549 0.184
78.5654 0.276
78.5759 0.225
78.5865 0.255
78.5970 0.235
78.6075 0.184
78.6180 0.245
78.6285 0.163
78.6391 0.143
78.6496 0.153
78.6601 0.184
78.6706 0.153
78.6812 0.112
78.6917 0.204
78.7022 0.184
78.7127 0.153
78.7232 0.184
78.7338 0.123
78.7443 0.112
78.7548 0.245
78.7653 0.061
78.7759 0.163
78.7864 0.123
78.7969 0.123
78.8074 0.143
78.8180 0.174
78.8285 0.123
78.8390 0.153
78.8495 0.184
78.8600 0.163
78.8706 0.204
78.8811 0.092
78.8916 0.133
78.9021 0.092
78.9127 0.194
78.9232 0.153
78.9337 0.071
78.9442 0.123
78.9547 0.174
78.9653 0.112
78.9758 0.143
78.9863 0.133
78.9968 0.174
79.0074 0.153
79.0179 0.123
79.0284 0.153
79.0389 0.112
79.0494 0.123
79.0600 0.153
79.0705 0.153
79.0810 0.194
79.0915 0.123
79.1021 0.123
79.1126 0.123
79.1231 0.143
79.1336 0.082
79.1442 0.163
79.1547 0.153
79.1652 0.133
79.1757 0.163
79.1862 0.204
79.1968 0.225
79.2073 0.123
79.2178 0.133
79.2283 0.163
79.2389 0.102
79.2494 0.143
79.2599 0.204
79.2704 0.123
79.2809 0.123
79.2915 0.174
79.3020 0.174
79.3125 0.092
79.3230 0.143
79.3336 0.133
79.3441 0.133
79.3546 0.153
79.3651 0.102
79.3757 0.123
79.3862 0.163
79.3967 0.133
79.4072 0.112
79.4177 0.112
79.4283 0.112
79.4388 0.163
79.4493 0.153
79.4598 0.184
79.4704 0.163
79.4809 0.133
79.4914 0.235
79.5019 0.214
79.5124 0.112
79.5230 0.163
79.5335 0.153
79.5440 0.163
79.5545 0.163
79.5651 0.102
79.5756 0.153
79.5861 0.133
79.5966 0.082
79.6071 0.174
79.6177 0.143
79.6282 0.153
79.6387 0.266
79.6492 0.204
79.6598 0.112
79.6703 0.123
79.6808 0.102
79.6913 0.174
79.7019 0.163
79.7124 0.174
79.7229 0.163
79.7334 0.143
79.7439 0.204
79.7545 0.184
79.7650 0.143
79.7755 0.184
79.7860 0.123
79.7966 0.143
79.8071 0.184
79.8176 0.163
79.8281 0.245
79.8386 0.133
79.8492 0.184
79.8597 0.194
79.8702 0.153
79.8807 0.153
79.8913 0.153
79.9018 0.184
79.9123 0.204
79.9228 0.255
79.9333 0.153
79.9439 0.235
79.9544 0.163
79.9649 0.194
79.9754 0.204
79.9860 0.174
79.9965 0.225
80.0070 0.255
