10.0000 1.113
10.0105 0.970
10.0210 0.909
10.0316 1.093
10.0421 1.001
10.0526 0.940
10.0631 1.093
10.0737 1.042
10.0842 1.123
10.0947 1.011
10.1052 1.072
10.1157 0.888
10.1263 1.031
10.1368 0.909
10.1473 1.123
10.1578 0.899
10.1684 1.031
10.1789 0.756
10.1894 1.083
10.1999 1.072
10.2105 0.929
10.2210 1.154
10.2315 1.093
10.2420 0.868
10.2525 0.929
10.2631 0.970
10.2736 0.929
10.2841 1.062
10.2946 0.909
10.3052 1.072
10.3157 0.960
10.3262 0.858
10.3367 0.960
10.3472 0.950
10.3578 0.878
10.3683 0.837
10.3788 0.950
10.3893 0.888
10.3999 0.858
10.4104 0.786
10.4209 1.031
10.4314 1.042
10.4420 1.123
10.4525 1.042
10.4630 1.083
10.4735 0.837
10.4840 1.031
10.4946 0.899
10.5051 0.909
10.5156 0.909
10.5261 0.940
10.5367 0.929
10.5472 0.888
10.5577 0.960
10.5682 0.899
10.5787 1.011
10.5893 0.878
10.5998 0.929
10.6103 0.970
10.6208 0.858
10.6314 0.848
10.6419 1.042
10.6524 1.001
10.6629 0.858
10.6734 0.909
10.6840 0.807
10.6945 0.786
10.7050 0.807
10.7155 0.950
10.7261 0.950
10.7366 1.093
10.7471 0.980
10.7576 0.950
10.7682 0.858
10.7787 0.888
10.7892 0.899
10.7997 0.878
10.8102 0.950
10.8208 0.837
10.8313 0.746
10.8418 0.950
10.8523 0.950
10.8629 0.827
10.8734 1.083
10.8839 0.950
10.8944 0.940
10.9049 0.960
10.9155 0.888
10.9260 0.837
10.9365 0.756
10.9470 0.950
10.9576 0.746
10.9681 0.817
10.9786 0.848
10.9891 0.919
10.9996 0.991
11.0102 0.950
11.0207 0.817
11.0312 0.919
11.0417 0.715
11.0523 0.827
11.0628 1.062
11.0733 0.797
11.0838 0.786
11.0944 0.766
11.1049 0.664
11.1154 0.837
11.1259 0.797
11.1364 0.837
11.1470 0.827
11.1575 0.766
11.1680 0.827
11.1785 1.031
11.1891 0.797
11.1996 0.797
11.2101 0.991
11.2206 0.970
11.2311 0.909
11.2417 0.827
11.2522 0.888
11.2627 0.858
11.2732 1.083
11.2838 0.797
11.2943 0.766
11.3048 0.766
11.3153 0.909
11.3259 0.797
11.3364 0.899
11.3469 0.899
11.3574 0.715
11.3679 0.715
11.3785 0.909
11.3890 0.929
11.3995 0.797
11.4100 0.756
11.4206 0.715
11.4311 0.848
11.4416 0.858
11.4521 0.756
11.4626 0.909
11.4732 0.868
11.4837 0.797
11.4942 0.694
11.5047 0.950
11.5153 0.725
11.5258 0.858
11.5363 0.878
11.5468 0.848
11.5573 0.766
11.5679 0.909
11.5784 1.103
11.5889 0.837
11.5994 0.940
11.6100 0.725
11.6205 0.776
11.6310 0.980
11.6415 0.756
11.6521 0.817
11.6626 0.950
11.6731 0.746
11.6836 0.735
11.6941 0.817
11.7047 0.725
11.7152 0.786
11.7257 0.643
11.7362 0.817
11.7468 0.807
11.7573 0.694
11.7678 0.735
11.7783 0.919
11.7888 0.878
11.7994 0.909
11.8099 0.899
11.8204 0.776
11.8309 0.837
11.8415 0.582
11.8520 0.684
11.8625 0.848
11.8730 0.786
11.8835 0.848
11.8941 0.797
11.9046 0.766
11.9151 0.909
11.9256 0.919
11.9362 0.684
11.9467 0.756
11.9572 0.980
11.9677 0.694
11.9783 0.868
11.9888 0.786
11.9993 0.776
12.0098 0.980
12.0203 0.776
12.0309 0.664
12.0414 0.613
12.0519 0.664
12.0624 0.817
12.0730 0.735
12.0835 0.848
12.0940 0.909
12.1045 0.940
12.1150 0.817
12.1256 0.786
12.1361 0.664
12.1466 0.674
12.1571 0.694
12.1677 0.674
12.1782 0.572
12.1887 0.858
12.1992 0.970
12.2098 0.786
12.2203 0.756
12.2308 0.899
12.2413 0.888
12.2518 0.766
12.2624 0.705
12.2729 0.715
12.2834 0.786
12.2939 0.858
12.3045 0.735
12.3150 0.511
12.3255 0.684
12.3360 0.725
12.3465 0.756
12.3571 0.654
12.3676 0.664
12.3781 0.746
12.3886 0.582
12.3992 0.603
12.4097 0.807
12.4202 0.694
12.4307 0.899
12.4412 0.664
12.4518 0.786
12.4623 0.715
12.4728 0.797
12.4833 0.715
12.4939 0.735
12.5044 0.613
12.5149 0.684
12.5254 0.868
12.5360 0.684
12.5465 0.766
12.5570 0.746
12.5675 0.827
12.5780 0.776
12.5886 0.674
12.5991 0.705
12.6096 0.827
12.6201 0.705
12.6307 0.878
12.6412 0.725
12.6517 0.848
12.6622 0.756
12.6727 0.674
12.6833 0.633
12.6938 0.725
12.7043 0.858
12.7148 0.837
12.7254 0.786
12.7359 0.694
12.7464 0.592
12.7569 0.776
12.7674 0.786
12.7780 0.776
12.7885 0.725
12.7990 0.603
12.8095 0.848
12.8201 0.735
12.8306 0.654
12.8411 0.623
12.8516 0.827
12.8622 0.674
12.8727 0.756
12.8832 0.633
12.8937 0.858
12.9042 0.592
12.9148 0.766
12.9253 0.705
12.9358 0.674
12.9463 0.715
12.9569 0.715
12.9674 0.715
12.9779 0.623
12.9884 0.674
12.9989 0.674
13.0095 0.715
13.0200 0.694
13.0305 0.725
13.0410 0.899
13.0516 0.725
13.0621 0.848
13.0726 0.776
13.0831 0.735
13.0937 0.705
13.1042 0.705
13.1147 0.858
13.1252 0.776
13.1357 0.746
13.1463 0.592
13.1568 0.613
13.1673 0.643
13.1778 0.664
13.1884 0.756
13.1989 0.684
13.2094 0.643
13.2199 0.766
13.2304 0.776
13.2410 0.786
13.2515 0.735
13.2620 0.684
13.2725 0.654
13.2831 0.674
13.2936 0.694
13.3041 0.848
13.3146 0.603
13.3251 0.541
13.3357 0.766
13.3462 0.694
13.3567 0.766
13.3672 0.725
13.3778 0.837
13.3883 0.786
13.3988 0.633
13.4093 0.633
13.4199 0.694
13.4304 0.623
13.4409 0.603
13.4514 0.582
13.4619 0.827
13.4725 0.684
13.4830 0.674
13.4935 0.725
13.5040 0.643
13.5146 0.705
13.5251 0.715
13.5356 0.664
13.5461 0.776
13.5566 0.633
13.5672 0.582
13.5777 0.623
13.5882 0.786
13.5987 0.603
13.6093 0.694
13.6198 0.776
13.6303 0.786
13.6408 0.735
13.6514 0.715
13.6619 0.888
13.6724 0.623
13.6829 0.735
13.6934 0.603
13.7040 0.623
13.7145 0.746
13.7250 0.613
13.7355 0.756
13.7461 0.603
13.7566 0.551
13.7671 0.623
13.7776 0.888
13.7881 0.705
13.7987 0.725
13.8092 0.817
13.8197 0.623
13.8302 0.654
13.8408 0.633
13.8513 0.562
13.8618 0.470
13.8723 0.643
13.8828 0.715
13.8934 0.664
13.9039 0.715
13.9144 0.572
13.9249 0.684
13.9355 0.694
13.9460 0.807
13.9565 0.592
13.9670 0.490
13.9776 0.633
13.9881 0.562
13.9986 0.613
14.0091 0.654
14.0196 0.705
14.0302 0.705
14.0407 0.623
14.0512 0.766
14.0617 0.541
14.0723 0.694
14.0828 0.705
14.0933 0.572
14.1038 0.664
14.1143 0.551
14.1249 0.664
14.1354 0.654
14.1459 0.623
14.1564 0.541
14.1670 0.633
14.1775 0.664
14.1880 0.674
14.1985 0.613
14.2090 0.572
14.2196 0.725
14.2301 0.664
14.2406 0.592
14.2511 0.603
14.2617 0.613
14.2722 0.766
14.2827 0.511
14.2932 0.603
14.3038 0.674
14.3143 0.613
14.3248 0.500
14.3353 0.500
14.3458 0.582
14.3564 0.613
14.3669 0.776
14.3774 0.623
14.3879 0.623
14.3985 0.643
14.4090 0.603
14.4195 0.613
14.4300 0.623
14.4405 0.572
14.4511 0.684
14.4616 0.643
14.4721 0.582
14.4826 0.541
14.4932 0.694
14.5037 0.572
14.5142 0.623
14.5247 0.572
14.5353 0.541
14.5458 0.439
14.5563 0.654
14.5668 0.398
14.5773 0.633
14.5879 0.521
14.5984 0.807
14.6089 0.674
14.6194 0.643
14.6300 0.408
14.6405 0.603
14.6510 0.715
14.6615 0.572
14.6720 0.643
14.6826 0.837
14.6931 0.633
14.7036 0.715
14.7141 0.582
14.7247 0.521
14.7352 0.541
14.7457 0.684
14.7562 0.551
14.7667 0.551
14.7773 0.654
14.7878 0.654
14.7983 0.603
14.8088 0.807
14.8194 0.715
14.8299 0.541
14.8404 0.654
14.8509 0.654
14.8615 0.460
14.8720 0.654
14.8825 0.725
14.8930 0.715
14.9035 0.623
14.9141 0.603
14.9246 0.664
14.9351 0.725
14.9456 0.592
14.9562 0.592
14.9667 0.603
14.9772 0.562
14.9877 0.684
14.9982 0.694
15.0088 0.460
15.0193 0.654
15.0298 0.572
15.0403 0.684
15.0509 0.470
15.0614 0.746
15.0719 0.429
15.0824 0.715
15.0929 0.725
15.1035 0.562
15.1140 0.643
15.1245 0.694
15.1350 0.449
15.1456 0.664
15.1561 0.664
15.1666 0.633
15.1771 0.490
15.1877 0.490
15.1982 0.500
15.2087 0.541
15.2192 0.694
15.2297 0.654
15.2403 0.633
15.2508 0.613
15.2613 0.613
15.2718 0.490
15.2824 0.500
15.2929 0.756
15.3034 0.480
15.3139 0.725
15.3244 0.643
15.3350 0.562
15.3455 0.725
15.3560 0.633
15.3665 0.592
15.3771 0.531
15.3876 0.643
15.3981 0.500
15.4086 0.551
15.4192 0.490
15.4297 0.521
15.4402 0.562
15.4507 0.480
15.4612 0.613
15.4718 0.551
15.4823 0.562
15.4928 0.531
15.5033 0.541
15.5139 0.766
15.5244 0.449
15.5349 0.623
15.5454 0.551
15.5559 0.603
15.5665 0.490
15.5770 0.664
15.5875 0.572
15.5980 0.694
15.6086 0.746
15.6191 0.735
15.6296 0.613
15.6401 0.664
15.6506 0.654
15.6612 0.674
15.6717 0.582
15.6822 0.643
15.6927 0.705
15.7033 0.643
15.7138 0.613
15.7243 0.684
15.7348 0.541
15.7454 0.654
15.7559 0.562
15.7664 0.603
15.7769 0.694
15.7874 0.776
15.7980 0.531
15.8085 0.592
15.8190 0.511
15.8295 0.684
15.8401 0.643
15.8506 0.521
15.8611 0.603
15.8716 0.766
15.8821 0.705
15.8927 0.643
15.9032 0.582
15.9137 0.654
15.9242 0.572
15.9348 0.572
15.9453 0.684
15.9558 0.613
15.9663 0.715
15.9768 0.654
15.9874 0.521
15.9979 0.623
16.0084 0.511
16.0189 0.582
16.0295 0.603
16.0400 0.643
16.0505 0.643
16.0610 0.725
16.0716 0.449
16.0821 0.562
16.0926 0.715
16.1031 0.521
16.1136 0.735
16.1242 0.531
16.1347 0.603
16.1452 0.511
16.1557 0.603
16.1663 0.603
16.1768 0.562
16.1873 0.643
16.1978 0.572
16.2083 0.582
16.2189 0.623
16.2294 0.664
16.2399 0.541
16.2504 0.705
16.2610 0.654
16.2715 0.470
16.2820 0.531
16.2925 0.725
16.3031 0.674
16.3136 0.521
16.3241 0.613
16.3346 0.654
16.3451 0.562
16.3557 0.531
16.3662 0.449
16.3767 0.490
16.3872 0.551
16.3978 0.480
16.4083 0.623
16.4188 0.419
16.4293 0.592
16.4398 0.572
16.4504 0.715
16.4609 0.633
16.4714 0.541
16.4819 0.551
16.4925 0.582
16.5030 0.541
16.5135 0.582
16.5240 0.633
16.5345 0.684
16.5451 0.725
16.5556 0.684
16.5661 0.551
16.5766 0.613
16.5872 0.490
16.5977 0.603
16.6082 0.551
16.6187 0.562
16.6293 0.654
16.6398 0.449
16.6503 0.582
16.6608 0.490
16.6713 0.705
16.6819 0.582
16.6924 0.582
16.7029 0.694
16.7134 0.419
16.7240 0.541
16.7345 0.562
16.7450 0.643
16.7555 0.786
16.7660 0.654
16.7766 0.684
16.7871 0.817
16.7976 0.592
16.8081 0.725
16.8187 0.776
16.8292 0.715
16.8397 0.776
16.8502 0.950
16.8607 0.756
16.8713 0.756
16.8818 0.827
16.8923 0.888
16.9028 0.868
16.9134 0.837
16.9239 1.001
16.9344 0.980
16.9449 1.011
16.9555 0.970
16.9660 1.205
16.9765 1.031
16.9870 1.144
16.9975 1.195
17.0081 1.420
17.0186 1.583
17.0291 1.603
17.0396 1.787
17.0502 1.930
17.0607 2.308
17.0712 2.359
17.0817 2.880
17.0922 3.145
17.1028 3.125
17.1133 3.830
17.1238 3.911
17.1343 4.320
17.1449 4.504
17.1554 5.249
17.1659 5.453
17.1764 5.923
17.1870 6.301
17.1975 6.138
17.2080 6.383
17.2185 6.301
17.2290 6.138
17.2396 5.392
17.2501 5.076
17.2606 4.820
17.2711 4.330
17.2817 3.952
17.2922 3.666
17.3027 3.217
17.3132 2.676
17.3237 2.400
17.3343 2.206
17.3448 2.196
17.3553 1.818
17.3658 1.542
17.3764 1.471
17.3869 1.491
17.3974 1.307
17.4079 1.113
17.4184 0.970
17.4290 0.991
17.4395 1.011
17.4500 0.858
17.4605 0.888
17.4711 0.746
17.4816 0.878
17.4921 0.807
17.5026 0.725
17.5132 0.786
17.5237 0.868
17.5342 0.807
17.5447 0.837
17.5552 0.582
17.5658 0.531
17.5763 0.643
17.5868 0.684
17.5973 0.654
17.6079 0.551
17.6184 0.633
17.6289 0.592
17.6394 0.470
17.6499 0.592
17.6605 0.654
17.6710 0.531
17.6815 0.746
17.6920 0.541
17.7026 0.613
17.7131 0.449
17.7236 0.562
17.7341 0.500
17.7447 0.551
17.7552 0.368
17.7657 0.715
17.7762 0.715
17.7867 0.592
17.7973 0.562
17.8078 0.521
17.8183 0.551
17.8288 0.531
17.8394 0.592
17.8499 0.582
17.8604 0.490
17.8709 0.613
17.8814 0.633
17.8920 0.633
17.9025 0.623
17.9130 0.623
17.9235 0.531
17.9341 0.623
17.9446 0.449
17.9551 0.541
17.9656 0.490
17.9761 0.541
17.9867 0.531
17.9972 0.408
18.0077 0.592
18.0182 0.531
18.0288 0.551
18.0393 0.582
18.0498 0.408
18.0603 0.500
18.0709 0.654
18.0814 0.541
18.0919 0.500
18.1024 0.582
18.1129 0.419
18.1235 0.613
18.1340 0.449
18.1445 0.531
18.1550 0.511
18.1656 0.603
18.1761 0.449
18.1866 0.347
18.1971 0.500
18.2076 0.408
18.2182 0.470
18.2287 0.408
18.2392 0.511
18.2497 0.419
18.2603 0.419
18.2708 0.460
18.2813 0.460
18.2918 0.531
18.3023 0.449
18.3129 0.337
18.3234 0.541
18.3339 0.378
18.3444 0.490
18.3550 0.531
18.3655 0.449
18.3760 0.347
18.3865 0.398
18.3971 0.490
18.4076 0.419
18.4181 0.460
18.4286 0.531
18.4391 0.460
18.4497 0.460
18.4602 0.470
18.4707 0.439
18.4812 0.531
18.4918 0.419
18.5023 0.460
18.5128 0.470
18.5233 0.429
18.5338 0.429
18.5444 0.398
18.5549 0.408
18.5654 0.378
18.5759 0.408
18.5865 0.511
18.5970 0.582
18.6075 0.480
18.6180 0.490
18.6286 0.439
18.6391 0.480
18.6496 0.572
18.6601 0.378
18.6706 0.449
18.6812 0.480
18.6917 0.490
18.7022 0.603
18.7127 0.490
18.7233 0.378
18.7338 0.551
18.7443 0.408
18.7548 0.480
18.7653 0.449
18.7759 0.500
18.7864 0.551
18.7969 0.378
18.8074 0.511
18.8180 0.460
18.8285 0.562
18.8390 0.531
18.8495 0.654
18.8600 0.429
18.8706 0.429
18.8811 0.429
18.8916 0.490
18.9021 0.460
18.9127 0.439
18.9232 0.521
18.9337 0.521
18.9442 0.572
18.9548 0.531
18.9653 0.551
18.9758 0.480
18.9863 0.592
18.9968 0.470
19.0074 0.357
19.0179 0.572
19.0284 0.449
19.0389 0.449
19.0495 0.480
19.0600 0.408
19.0705 0.511
19.0810 0.449
19.0915 0.511
19.1021 0.368
19.1126 0.357
19.1231 0.572
19.1336 0.347
19.1442 0.531
19.1547 0.694
19.1652 0.398
19.1757 0.480
19.1862 0.449
19.1968 0.521
19.2073 0.500
19.2178 0.470
19.2283 0.490
19.2389 0.337
19.2494 0.633
19.2599 0.511
19.2704 0.378
19.2810 0.500
19.2915 0.429
19.3020 0.521
19.3125 0.541
19.3230 0.511
19.3336 0.408
19.3441 0.531
19.3546 0.551
19.3651 0.500
19.3757 0.378
19.3862 0.470
19.3967 0.327
19.4072 0.551
19.4177 0.378
19.4283 0.541
19.4388 0.460
19.4493 0.500
19.4598 0.480
19.4704 0.470
19.4809 0.449
19.4914 0.500
19.5019 0.572
19.5125 0.531
19.5230 0.439
19.5335 0.449
19.5440 0.603
19.5545 0.429
19.5651 0.449
19.5756 0.449
19.5861 0.521
19.5966 0.357
19.6072 0.449
19.6177 0.562
19.6282 0.480
19.6387 0.480
19.6492 0.388
19.6598 0.449
19.6703 0.541
19.6808 0.368
19.6913 0.572
19.7019 0.541
19.7124 0.439
19.7229 0.449
19.7334 0.368
19.7439 0.562
19.7545 0.511
19.7650 0.582
19.7755 0.541
19.7860 0.388
19.7966 0.408
19.8071 0.592
19.8176 0.551
19.8281 0.623
19.8387 0.368
19.8492 0.613
19.8597 0.378
19.8702 0.500
19.8807 0.398
19.8913 0.500
19.9018 0.562
19.9123 0.521
19.9228 0.470
19.9334 0.470
19.9439 0.551
19.9544 0.449
19.9649 0.460
19.9754 0.490
19.9860 0.470
19.9965 0.449
20.0070 0.541
20.0175 0.439
20.0281 0.551
20.0386 0.531
20.0491 0.388
20.0596 0.531
20.0701 0.470
20.0807 0.511
20.0912 0.541
20.1017 0.449
20.1122 0.531
20.1228 0.746
20.1333 0.562
20.1438 0.521
20.1543 0.490
20.1649 0.460
20.1754 0.511
20.1859 0.643
20.1964 0.398
20.2069 0.439
20.2175 0.470
20.2280 0.378
20.2385 0.490
20.2490 0.521
20.2596 0.470
20.2701 0.643
20.2806 0.694
20.2911 0.562
20.3016 0.603
20.3122 0.531
20.3227 0.429
20.3332 0.511
20.3437 0.623
20.3543 0.613
20.3648 0.643
20.3753 0.705
20.3858 0.633
20.3964 0.684
20.4069 0.674
20.4174 0.725
20.4279 0.572
20.4384 0.899
20.4490 0.643
20.4595 0.746
20.4700 0.837
20.4805 0.909
20.4911 0.674
20.5016 0.980
20.5121 0.909
20.5226 0.970
20.5331 0.868
20.5437 0.909
20.5542 1.113
20.5647 1.164
20.5752 1.389
20.5858 1.491
20.5963 1.573
20.6068 1.644
20.6173 1.777
20.6278 2.247
20.6384 2.614
20.6489 2.880
20.6594 3.166
20.6699 3.564
20.6805 4.156
20.6910 5.076
20.7015 5.270
20.7120 6.393
20.7226 6.893
20.7331 8.047
20.7436 7.833
20.7541 9.783
20.7646 9.569
20.7752 10.335
20.7857 10.703
20.7962 10.294
20.8067 9.692
20.8173 9.845
20.8278 8.915
20.8383 8.721
20.8488 7.741
20.8593 6.444
20.8699 5.443
20.8804 4.922
20.8909 4.279
20.9014 3.646
20.9120 3.023
20.9225 2.727
20.9330 2.604
20.9435 2.655
20.9541 2.042
20.9646 1.685
20.9751 1.746
20.9856 1.471
20.9961 1.430
21.0067 1.338
21.0172 1.113
21.0277 0.960
21.0382 1.083
21.0488 0.970
21.0593 0.991
21.0698 0.909
21.0803 0.807
21.0908 0.940
21.1014 0.725
21.1119 0.623
21.1224 0.623
21.1329 0.694
21.1435 0.837
21.1540 0.858
21.1645 0.674
21.1750 0.551
21.1855 0.603
21.1961 0.603
21.2066 0.674
21.2171 0.582
21.2276 0.654
21.2382 0.633
21.2487 0.490
21.2592 0.582
21.2697 0.521
21.2803 0.521
21.2908 0.511
21.3013 0.500
21.3118 0.439
21.3223 0.449
21.3329 0.419
21.3434 0.674
21.3539 0.511
21.3644 0.623
21.3750 0.511
21.3855 0.378
21.3960 0.429
21.4065 0.419
21.4170 0.511
21.4276 0.388
21.4381 0.500
21.4486 0.551
21.4591 0.480
21.4697 0.592
21.4802 0.398
21.4907 0.531
21.5012 0.398
21.5117 0.623
21.5223 0.490
21.5328 0.562
21.5433 0.460
21.5538 0.429
21.5644 0.388
21.5749 0.470
21.5854 0.470
21.5959 0.398
21.6065 0.398
21.6170 0.327
21.6275 0.531
21.6380 0.470
21.6485 0.449
21.6591 0.490
21.6696 0.378
21.6801 0.613
21.6906 0.429
21.7012 0.633
21.7117 0.521
21.7222 0.286
21.7327 0.500
21.7432 0.419
21.7538 0.388
21.7643 0.408
21.7748 0.511
21.7853 0.429
21.7959 0.511
21.8064 0.327
21.8169 0.541
21.8274 0.449
21.8380 0.276
21.8485 0.470
21.8590 0.449
21.8695 0.419
21.8800 0.419
21.8906 0.490
21.9011 0.460
21.9116 0.480
21.9221 0.439
21.9327 0.357
21.9432 0.460
21.9537 0.531
21.9642 0.490
21.9747 0.449
21.9853 0.378
21.9958 0.460
22.0063 0.357
22.0168 0.439
22.0274 0.480
22.0379 0.470
22.0484 0.408
22.0589 0.511
22.0694 0.572
22.0800 0.429
22.0905 0.511
22.1010 0.419
22.1115 0.419
22.1221 0.603
22.1326 0.551
22.1431 0.592
22.1536 0.490
22.1642 0.470
22.1747 0.541
22.1852 0.480
22.1957 0.470
22.2062 0.470
22.2168 0.500
22.2273 0.511
22.2378 0.521
22.2483 0.572
22.2589 0.521
22.2694 0.449
22.2799 0.429
22.2904 0.490
22.3009 0.398
22.3115 0.490
22.3220 0.490
22.3325 0.541
22.3430 0.521
22.3536 0.541
22.3641 0.551
22.3746 0.541
22.3851 0.613
22.3956 0.490
22.4062 0.603
22.4167 0.531
22.4272 0.684
22.4377 0.521
22.4483 0.756
22.4588 0.643
22.4693 0.786
22.4798 0.674
22.4904 0.694
22.5009 0.725
22.5114 0.797
22.5219 0.848
22.5324 1.031
22.5430 0.940
22.5535 1.113
22.5640 1.062
22.5745 1.103
22.5851 1.287
22.5956 1.266
22.6061 1.409
22.6166 1.583
22.6271 1.491
22.6377 2.002
22.6482 2.155
22.6587 2.349
22.6692 2.635
22.6798 2.757
22.6903 2.808
22.7008 3.329
22.7113 3.360
22.7219 3.319
22.7324 3.973
22.7429 3.830
22.7534 3.656
22.7639 3.932
22.7745 3.871
22.7850 3.656
22.7955 3.666
22.8060 3.268
22.8166 3.523
22.8271 3.329
22.8376 3.054
22.8481 2.768
22.8586 2.349
22.8692 2.512
22.8797 2.145
22.8902 2.063
22.9007 1.767
22.9113 1.491
22.9218 1.389
22.9323 1.368
22.9428 1.256
22.9533 1.174
22.9639 0.980
22.9744 0.929
22.9849 0.919
22.9954 0.899
23.0060 0.858
23.0165 0.613
23.0270 0.725
23.0375 0.613
23.0481 0.715
23.0586 0.551
23.0691 0.592
23.0796 0.531
23.0901 0.439
23.1007 0.562
23.1112 0.500
23.1217 0.521
23.1322 0.470
23.1428 0.684
23.1533 0.664
23.1638 0.388
23.1743 0.398
23.1848 0.449
23.1954 0.419
23.2059 0.531
23.2164 0.439
23.2269 0.449
23.2375 0.531
23.2480 0.592
23.2585 0.419
23.2690 0.490
23.2795 0.500
23.2901 0.511
23.3006 0.572
23.3111 0.429
23.3216 0.562
23.3322 0.439
23.3427 0.439
23.3532 0.439
23.3637 0.327
23.3743 0.582
23.3848 0.337
23.3953 0.531
23.4058 0.204
23.4163 0.337
23.4269 0.460
23.4374 0.419
23.4479 0.419
23.4584 0.460
23.4690 0.521
23.4795 0.337
23.4900 0.480
23.5005 0.449
23.5110 0.449
23.5216 0.357
23.5321 0.388
23.5426 0.419
23.5531 0.551
23.5637 0.368
23.5742 0.470
23.5847 0.398
23.5952 0.562
23.6058 0.521
23.6163 0.460
23.6268 0.490
23.6373 0.582
23.6478 0.357
23.6584 0.511
23.6689 0.521
23.6794 0.541
23.6899 0.521
23.7005 0.490
23.7110 0.460
23.7215 0.541
23.7320 0.531
23.7425 0.439
23.7531 0.551
23.7636 0.480
23.7741 0.398
23.7846 0.480
23.7952 0.480
23.8057 0.388
23.8162 0.551
23.8267 0.521
23.8372 0.470
23.8478 0.500
23.8583 0.511
23.8688 0.654
23.8793 0.541
23.8899 0.562
23.9004 0.592
23.9109 0.654
23.9214 0.756
23.9320 0.786
23.9425 0.786
23.9530 0.746
23.9635 1.062
23.9740 0.837
23.9846 0.960
23.9951 0.940
24.0056 1.215
24.0161 1.307
24.0267 1.399
24.0372 1.450
24.0477 1.287
24.0582 1.379
24.0687 1.399
24.0793 1.573
24.0898 1.685
24.1003 1.573
24.1108 1.695
24.1214 1.665
24.1319 1.420
24.1424 1.491
24.1529 1.195
24.1635 1.368
24.1740 1.185
24.1845 1.134
24.1950 1.134
24.2055 0.878
24.2161 0.919
24.2266 0.715
24.2371 0.797
24.2476 0.725
24.2582 0.746
24.2687 0.623
24.2792 0.848
24.2897 0.449
24.3002 0.521
24.3108 0.572
24.3213 0.460
24.3318 0.551
24.3423 0.541
24.3529 0.480
24.3634 0.531
24.3739 0.419
24.3844 0.603
24.3949 0.449
24.4055 0.592
24.4160 0.408
24.4265 0.480
24.4370 0.592
24.4476 0.551
24.4581 0.572
24.4686 0.511
24.4791 0.470
24.4897 0.480
24.5002 0.357
24.5107 0.398
24.5212 0.511
24.5317 0.368
24.5423 0.449
24.5528 0.388
24.5633 0.347
24.5738 0.398
24.5844 0.480
24.5949 0.490
24.6054 0.531
24.6159 0.337
24.6264 0.388
24.6370 0.449
24.6475 0.500
24.6580 0.368
24.6685 0.357
24.6791 0.551
24.6896 0.480
24.7001 0.480
24.7106 0.337
24.7211 0.480
24.7317 0.388
24.7422 0.480
24.7527 0.572
24.7632 0.408
24.7738 0.521
24.7843 0.449
24.7948 0.429
24.8053 0.388
24.8159 0.378
24.8264 0.460
24.8369 0.521
24.8474 0.531
24.8579 0.470
24.8685 0.490
24.8790 0.449
24.8895 0.572
24.9000 0.572
24.9106 0.490
24.9211 0.582
24.9316 0.551
24.9421 0.429
24.9526 0.633
24.9632 0.603
24.9737 0.531
24.9842 0.490
24.9947 0.419
25.0053 0.582
25.0158 0.572
25.0263 0.582
25.0368 0.551
25.0474 0.572
25.0579 0.470
25.0684 0.541
25.0789 0.551
25.0894 0.603
25.1000 0.623
25.1105 0.603
25.1210 0.603
25.1315 0.521
25.1421 0.603
25.1526 0.654
25.1631 0.715
25.1736 0.582
25.1841 0.827
25.1947 0.623
25.2052 0.633
25.2157 0.786
25.2262 0.919
25.2368 0.500
25.2473 0.705
25.2578 0.817
25.2683 0.980
25.2788 0.970
25.2894 0.991
25.2999 1.103
25.3104 1.266
25.3209 1.225
25.3315 1.225
25.3420 1.420
25.3525 1.277
25.3630 1.705
25.3736 1.879
25.3841 1.808
25.3946 2.175
25.4051 2.134
25.4156 2.625
25.4262 2.574
25.4367 2.890
25.4472 3.196
25.4577 3.911
25.4683 4.146
25.4788 4.606
25.4893 5.443
25.4998 5.699
25.5103 6.658
25.5209 7.843
25.5314 8.211
25.5419 8.752
25.5524 9.487
25.5630 10.263
25.5735 11.070
25.5840 12.143
25.5945 12.500
25.6050 12.551
25.6156 13.164
25.6261 12.817
25.6366 13.562
25.6471 12.153
25.6577 12.051
25.6682 10.948
25.6787 10.376
25.6892 9.334
25.6998 9.375
25.7103 7.986
25.7208 7.649
25.7313 6.393
25.7418 5.545
25.7524 5.167
25.7629 4.483
25.7734 3.881
25.7839 3.768
25.7945 3.380
25.8050 2.890
25.8155 2.931
25.8260 2.400
25.8365 2.237
25.8471 1.920
25.8576 2.206
25.8681 1.614
25.8786 1.624
25.8892 1.420
25.8997 1.297
25.9102 1.103
25.9207 1.174
25.9313 1.123
25.9418 1.072
25.9523 1.083
25.9628 1.042
25.9733 0.888
25.9839 0.888
25.9944 0.633
26.0049 0.899
26.0154 0.643
26.0260 0.858
26.0365 0.797
26.0470 0.766
26.0575 0.746
26.0680 0.776
26.0786 0.582
26.0891 0.705
26.0996 0.623
26.1101 0.643
26.1207 0.449
26.1312 0.541
26.1417 0.674
26.1522 0.521
26.1627 0.643
26.1733 0.551
26.1838 0.562
26.1943 0.664
26.2048 0.490
26.2154 0.541
26.2259 0.572
26.2364 0.500
26.2469 0.470
26.2575 0.511
26.2680 0.500
26.2785 0.460
26.2890 0.398
26.2995 0.398
26.3101 0.398
26.3206 0.521
26.3311 0.521
26.3416 0.419
26.3522 0.429
26.3627 0.470
26.3732 0.511
26.3837 0.306
26.3942 0.419
26.4048 0.511
26.4153 0.460
26.4258 0.398
26.4363 0.541
26.4469 0.511
26.4574 0.460
26.4679 0.500
26.4784 0.500
26.4889 0.500
26.4995 0.419
26.5100 0.419
26.5205 0.449
26.5310 0.460
26.5416 0.490
26.5521 0.429
26.5626 0.388
26.5731 0.378
26.5837 0.419
26.5942 0.429
26.6047 0.378
26.6152 0.378
26.6257 0.470
26.6363 0.439
26.6468 0.388
26.6573 0.521
26.6678 0.470
26.6784 0.439
26.6889 0.460
26.6994 0.490
26.7099 0.398
26.7204 0.378
26.7310 0.347
26.7415 0.460
26.7520 0.439
26.7625 0.490
26.7731 0.592
26.7836 0.378
26.7941 0.531
26.8046 0.327
26.8152 0.398
26.8257 0.429
26.8362 0.368
26.8467 0.317
26.8572 0.419
26.8678 0.408
26.8783 0.317
26.8888 0.470
26.8993 0.368
26.9099 0.398
26.9204 0.398
26.9309 0.511
26.9414 0.398
26.9519 0.378
26.9625 0.368
26.9730 0.419
26.9835 0.419
26.9940 0.296
27.0046 0.490
27.0151 0.378
27.0256 0.419
27.0361 0.347
27.0466 0.378
27.0572 0.439
27.0677 0.460
27.0782 0.460
27.0887 0.357
27.0993 0.490
27.1098 0.327
27.1203 0.449
27.1308 0.337
27.1414 0.449
27.1519 0.439
27.1624 0.245
27.1729 0.398
27.1834 0.347
27.1940 0.368
27.2045 0.419
27.2150 0.408
27.2255 0.368
27.2361 0.266
27.2466 0.398
27.2571 0.439
27.2676 0.388
27.2781 0.368
27.2887 0.357
27.2992 0.480
27.3097 0.398
27.3202 0.398
27.3308 0.317
27.3413 0.296
27.3518 0.317
27.3623 0.378
27.3728 0.429
27.3834 0.429
27.3939 0.255
27.4044 0.398
27.4149 0.408
27.4255 0.357
27.4360 0.460
27.4465 0.429
27.4570 0.337
27.4676 0.398
27.4781 0.398
27.4886 0.357
27.4991 0.398
27.5096 0.419
27.5202 0.368
27.5307 0.419
27.5412 0.388
27.5517 0.419
27.5623 0.470
27.5728 0.245
27.5833 0.388
27.5938 0.439
27.6043 0.347
27.6149 0.286
27.6254 0.347
27.6359 0.347
27.6464 0.429
27.6570 0.368
27.6675 0.357
27.6780 0.327
27.6885 0.419
27.6991 0.439
27.7096 0.357
27.7201 0.378
27.7306 0.388
27.7411 0.419
27.7517 0.357
27.7622 0.378
27.7727 0.408
27.7832 0.317
27.7938 0.296
27.8043 0.439
27.8148 0.368
27.8253 0.368
27.8358 0.306
27.8464 0.419
27.8569 0.276
27.8674 0.245
27.8779 0.317
27.8885 0.500
27.8990 0.368
27.9095 0.398
27.9200 0.255
27.9305 0.368
27.9411 0.357
27.9516 0.511
27.9621 0.276
27.9726 0.357
27.9832 0.327
27.9937 0.419
28.0042 0.337
28.0147 0.378
28.0253 0.317
28.0358 0.347
28.0463 0.378
28.0568 0.337
28.0673 0.449
28.0779 0.378
28.0884 0.368
28.0989 0.357
28.1094 0.317
28.1200 0.408
28.1305 0.357
28.1410 0.388
28.1515 0.276
28.1620 0.306
28.1726 0.296
28.1831 0.429
28.1936 0.378
28.2041 0.296
28.2147 0.419
28.2252 0.378
28.2357 0.306
28.2462 0.378
28.2568 0.317
28.2673 0.337
28.2778 0.368
28.2883 0.378
28.2988 0.357
28.3094 0.378
28.3199 0.347
28.3304 0.317
28.3409 0.357
28.3515 0.572
28.3620 0.317
28.3725 0.429
28.3830 0.398
28.3935 0.419
28.4041 0.398
28.4146 0.317
28.4251 0.408
28.4356 0.398
28.4462 0.388
28.4567 0.378
28.4672 0.368
28.4777 0.378
28.4882 0.429
28.4988 0.388
28.5093 0.408
28.5198 0.306
28.5303 0.357
28.5409 0.327
28.5514 0.378
28.5619 0.327
28.5724 0.357
28.5830 0.317
28.5935 0.398
28.6040 0.378
28.6145 0.388
28.6250 0.317
28.6356 0.378
28.6461 0.286
28.6566 0.357
28.6671 0.398
28.6777 0.470
28.6882 0.378
28.6987 0.398
28.7092 0.357
28.7197 0.429
28.7303 0.500
28.7408 0.398
28.7513 0.480
28.7618 0.337
28.7724 0.408
28.7829 0.296
28.7934 0.306
28.8039 0.419
28.8144 0.429
28.8250 0.511
28.8355 0.368
28.8460 0.378
28.8565 0.531
28.8671 0.429
28.8776 0.531
28.8881 0.357
28.8986 0.357
28.9092 0.378
28.9197 0.531
28.9302 0.378
28.9407 0.368
28.9512 0.419
28.9618 0.592
28.9723 0.408
28.9828 0.398
28.9933 0.521
29.0039 0.439
29.0144 0.347
29.0249 0.449
29.0354 0.368
29.0459 0.470
29.0565 0.490
29.0670 0.419
29.0775 0.490
29.0880 0.470
29.0986 0.460
29.1091 0.460
29.1196 0.684
29.1301 0.408
29.1407 0.480
29.1512 0.490
29.1617 0.531
29.1722 0.480
29.1827 0.531
29.1933 0.694
29.2038 0.654
29.2143 0.582
29.2248 0.592
29.2354 0.674
29.2459 0.694
29.2564 0.694
29.2669 0.715
29.2774 0.490
29.2880 0.572
29.2985 0.449
29.3090 0.786
29.3195 0.674
29.3301 0.572
29.3406 0.725
29.3511 0.725
29.3616 0.786
29.3721 0.807
29.3827 0.776
29.3932 0.746
29.4037 0.960
29.4142 1.011
29.4248 1.021
29.4353 0.858
29.4458 0.868
29.4563 1.031
29.4669 0.960
29.4774 1.348
29.4879 1.420
29.4984 1.328
29.5089 1.501
29.5195 1.603
29.5300 1.603
29.5405 1.716
29.5510 1.767
29.5616 1.828
29.5721 2.124
29.5826 2.400
29.5931 2.625
29.6036 3.074
29.6142 2.962
29.6247 3.329
29.6352 4.105
29.6457 4.248
29.6563 4.350
29.6668 5.076
29.6773 4.922
29.6878 5.545
29.6983 5.780
29.7089 6.587
29.7194 7.557
29.7299 8.364
29.7404 8.231
29.7510 9.191
29.7615 9.161
29.7720 9.957
29.7825 10.539
29.7931 10.315
29.8036 10.907
29.8141 11.305
29.8246 11.397
29.8351 11.040
29.8457 11.479
29.8562 10.570
29.8667 10.774
29.8772 10.008
29.8878 10.509
29.8983 9.109
29.9088 8.885
29.9193 7.945
29.9298 8.435
29.9404 6.955
29.9509 6.444
29.9614 6.342
29.9719 5.341
29.9825 5.096
29.9930 5.004
30.0035 4.248
30.0140 4.054
30.0246 3.493
30.0351 3.135
30.0456 3.135
30.0561 2.829
30.0666 2.492
30.0772 2.379
30.0877 1.991
30.0982 1.951
30.1087 1.746
30.1193 1.624
30.1298 1.665
30.1403 1.522
30.1508 1.144
30.1613 1.164
30.1719 1.236
30.1824 1.134
30.1929 1.113
30.2034 1.123
30.2140 0.980
30.2245 0.888
30.2350 0.858
30.2455 0.919
30.2560 0.848
30.2666 0.705
30.2771 0.766
30.2876 0.643
30.2981 0.582
30.3087 0.623
30.3192 0.562
30.3297 0.449
30.3402 0.674
30.3508 0.603
30.3613 0.531
30.3718 0.551
30.3823 0.551
30.3928 0.500
30.4034 0.470
30.4139 0.490
30.4244 0.551
30.4349 0.439
30.4455 0.562
30.4560 0.419
30.4665 0.398
30.4770 0.551
30.4875 0.531
30.4981 0.408
30.5086 0.429
30.5191 0.419
30.5296 0.511
30.5402 0.480
30.5507 0.470
30.5612 0.490
30.5717 0.408
30.5822 0.419
30.5928 0.306
30.6033 0.378
30.6138 0.368
30.6243 0.357
30.6349 0.388
30.6454 0.408
30.6559 0.337
30.6664 0.337
30.6770 0.439
30.6875 0.388
30.6980 0.480
30.7085 0.357
30.7190 0.337
30.7296 0.460
30.7401 0.429
30.7506 0.398
30.7611 0.357
30.7717 0.378
30.7822 0.500
30.7927 0.449
30.8032 0.521
30.8137 0.500
30.8243 0.449
30.8348 0.480
30.8453 0.347
30.8558 0.460
30.8664 0.429
30.8769 0.439
30.8874 0.408
30.8979 0.460
30.9085 0.368
30.9190 0.327
30.9295 0.449
30.9400 0.357
30.9505 0.296
30.9611 0.480
30.9716 0.470
30.9821 0.337
30.9926 0.490
31.0032 0.419
31.0137 0.408
31.0242 0.398
31.0347 0.276
31.0452 0.317
31.0558 0.306
31.0663 0.357
31.0768 0.388
31.0873 0.439
31.0979 0.368
31.1084 0.378
31.1189 0.286
31.1294 0.327
31.1399 0.439
31.1505 0.317
31.1610 0.449
31.1715 0.419
31.1820 0.306
31.1926 0.276
31.2031 0.368
31.2136 0.419
31.2241 0.347
31.2347 0.266
31.2452 0.368
31.2557 0.245
31.2662 0.347
31.2767 0.214
31.2873 0.347
31.2978 0.470
31.3083 0.419
31.3188 0.357
31.3294 0.480
31.3399 0.286
31.3504 0.306
31.3609 0.225
31.3714 0.429
31.3820 0.317
31.3925 0.490
31.4030 0.337
31.4135 0.419
31.4241 0.327
31.4346 0.378
31.4451 0.286
31.4556 0.388
31.4662 0.368
31.4767 0.388
31.4872 0.408
31.4977 0.398
31.5082 0.306
31.5188 0.245
31.5293 0.357
31.5398 0.378
31.5503 0.500
31.5609 0.439
31.5714 0.449
31.5819 0.419
31.5924 0.286
31.6029 0.357
31.6135 0.429
31.6240 0.388
31.6345 0.317
31.6450 0.357
31.6556 0.368
31.6661 0.470
31.6766 0.357
31.6871 0.306
31.6976 0.439
31.7082 0.378
31.7187 0.429
31.7292 0.368
31.7397 0.419
31.7503 0.429
31.7608 0.449
31.7713 0.419
31.7818 0.460
31.7924 0.419
31.8029 0.368
31.8134 0.398
31.8239 0.398
31.8344 0.460
31.8450 0.541
31.8555 0.490
31.8660 0.531
31.8765 0.490
31.8871 0.603
31.8976 0.572
31.9081 0.429
31.9186 0.562
31.9291 0.562
31.9397 0.715
31.9502 0.613
31.9607 0.725
31.9712 0.613
31.9818 0.705
31.9923 0.746
32.0028 0.766
32.0133 0.674
32.0238 0.827
32.0344 0.797
32.0449 1.154
32.0554 1.021
32.0659 1.174
32.0765 1.072
32.0870 1.716
32.0975 1.624
32.1080 1.614
32.1186 2.104
32.1291 2.022
32.1396 2.226
32.1501 2.717
32.1606 2.859
32.1712 3.125
32.1817 3.871
32.1922 4.003
32.2027 4.054
32.2133 4.473
32.2238 5.055
32.2343 4.259
32.2448 4.984
32.2553 5.362
32.2659 5.004
32.2764 5.045
32.2869 4.636
32.2974 4.024
32.3080 3.973
32.3185 3.922
32.3290 3.105
32.3395 3.442
32.3501 2.992
32.3606 2.931
32.3711 2.696
32.3816 2.543
32.3921 2.124
32.4027 1.848
32.4132 1.614
32.4237 1.348
32.4342 1.409
32.4448 1.297
32.4553 0.980
32.4658 0.940
32.4763 1.072
32.4868 1.001
32.4974 1.042
32.5079 0.664
32.5184 0.674
32.5289 0.592
32.5395 0.613
32.5500 0.633
32.5605 0.439
32.5710 0.572
32.5815 0.541
32.5921 0.613
32.6026 0.521
32.6131 0.500
32.6236 0.521
32.6342 0.480
32.6447 0.541
32.6552 0.398
32.6657 0.490
32.6763 0.460
32.6868 0.347
32.6973 0.521
32.7078 0.429
32.7183 0.357
32.7289 0.357
32.7394 0.398
32.7499 0.511
32.7604 0.449
32.7710 0.470
32.7815 0.306
32.7920 0.500
32.8025 0.541
32.8130 0.296
32.8236 0.327
32.8341 0.347
32.8446 0.357
32.8551 0.347
32.8657 0.214
32.8762 0.398
32.8867 0.306
32.8972 0.347
32.9077 0.286
32.9183 0.327
32.9288 0.296
32.9393 0.306
32.9498 0.317
32.9604 0.255
32.9709 0.388
32.9814 0.388
32.9919 0.286
33.0025 0.388
33.0130 0.235
33.0235 0.235
33.0340 0.317
33.0445 0.296
33.0551 0.347
33.0656 0.388
33.0761 0.388
33.0866 0.266
33.0972 0.368
33.1077 0.276
33.1182 0.398
33.1287 0.306
33.1392 0.347
33.1498 0.306
33.1603 0.347
33.1708 0.306
33.1813 0.245
33.1919 0.225
33.2024 0.347
33.2129 0.357
33.2234 0.398
33.2340 0.296
33.2445 0.347
33.2550 0.388
33.2655 0.276
33.2760 0.306
33.2866 0.337
33.2971 0.357
33.3076 0.408
33.3181 0.286
33.3287 0.266
33.3392 0.235
33.3497 0.266
33.3602 0.327
33.3707 0.317
33.3813 0.266
33.3918 0.276
33.4023 0.276
33.4128 0.235
33.4234 0.235
33.4339 0.296
33.4444 0.266
33.4549 0.470
33.4654 0.317
33.4760 0.296
33.4865 0.337
33.4970 0.245
33.5075 0.214
33.5181 0.317
33.5286 0.306
33.5391 0.347
33.5496 0.245
33.5602 0.266
33.5707 0.357
33.5812 0.276
33.5917 0.235
33.6022 0.337
33.6128 0.357
33.6233 0.276
33.6338 0.347
33.6443 0.327
33.6549 0.245
33.6654 0.296
33.6759 0.245
33.6864 0.378
33.6969 0.296
33.7075 0.337
33.7180 0.306
33.7285 0.306
33.7390 0.296
33.7496 0.255
33.7601 0.327
33.7706 0.296
33.7811 0.194
33.7916 0.347
33.8022 0.337
33.8127 0.327
33.8232 0.255
33.8337 0.235
33.8443 0.398
33.8548 0.266
33.8653 0.347
33.8758 0.357
33.8864 0.235
33.8969 0.214
33.9074 0.378
33.9179 0.225
33.9284 0.296
33.9390 0.357
33.9495 0.235
33.9600 0.388
33.9705 0.255
33.9811 0.357
33.9916 0.184
34.0021 0.337
34.0126 0.235
34.0231 0.306
34.0337 0.337
34.0442 0.327
34.0547 0.235
34.0652 0.317
34.0758 0.276
34.0863 0.368
34.0968 0.357
34.1073 0.419
34.1179 0.368
34.1284 0.296
34.1389 0.306
34.1494 0.337
34.1599 0.286
34.1705 0.306
34.1810 0.286
34.1915 0.388
34.2020 0.286
34.2126 0.368
34.2231 0.368
34.2336 0.317
34.2441 0.337
34.2546 0.306
34.2652 0.419
34.2757 0.327
34.2862 0.337
34.2967 0.357
34.3073 0.357
34.3178 0.276
34.3283 0.357
34.3388 0.378
34.3493 0.337
34.3599 0.378
34.3704 0.357
34.3809 0.408
34.3914 0.470
34.4020 0.296
34.4125 0.317
34.4230 0.266
34.4335 0.357
34.4441 0.429
34.4546 0.429
34.4651 0.398
34.4756 0.490
34.4861 0.398
34.4967 0.541
34.5072 0.429
34.5177 0.582
34.5282 0.500
34.5388 0.449
34.5493 0.408
34.5598 0.582
34.5703 0.643
34.5808 0.541
34.5914 0.572
34.6019 0.776
34.6124 0.623
34.6229 0.746
34.6335 0.613
34.6440 0.592
34.6545 0.674
34.6650 0.633
34.6756 0.776
34.6861 0.725
34.6966 0.562
34.7071 0.694
34.7176 0.633
34.7282 0.490
34.7387 0.551
34.7492 0.643
34.7597 0.572
34.7703 0.664
34.7808 0.633
34.7913 0.654
34.8018 0.613
34.8123 0.572
34.8229 0.592
34.8334 0.511
34.8439 0.460
34.8544 0.449
34.8650 0.551
34.8755 0.551
34.8860 0.521
34.8965 0.551
34.9070 0.419
34.9176 0.470
34.9281 0.449
34.9386 0.603
34.9491 0.521
34.9597 0.449
34.9702 0.470
34.9807 0.470
34.9912 0.490
35.0018 0.500
35.0123 0.603
35.0228 0.378
35.0333 0.439
35.0438 0.531
35.0544 0.654
35.0649 0.551
35.0754 0.694
35.0859 0.633
35.0965 0.735
35.1070 0.572
35.1175 0.725
35.1280 0.684
35.1385 0.572
35.1491 0.460
35.1596 0.735
35.1701 0.674
35.1806 0.623
35.1912 0.776
35.2017 0.848
35.2122 0.919
35.2227 0.817
35.2332 0.929
35.2438 1.062
35.2543 0.929
35.2648 1.021
35.2753 1.072
35.2859 1.093
35.2964 1.246
35.3069 1.001
35.3174 1.144
35.3280 1.348
35.3385 1.440
35.3490 1.277
35.3595 1.808
35.3700 1.787
35.3806 1.828
35.3911 2.022
35.4016 2.185
35.4121 1.981
35.4227 2.328
35.4332 2.768
35.4437 3.339
35.4542 3.411
35.4647 3.493
35.4753 3.707
35.4858 4.024
35.4963 4.994
35.5068 5.801
35.5174 6.005
35.5279 6.076
35.5384 7.302
35.5489 8.262
35.5595 9.171
35.5700 9.763
35.5805 10.580
35.5910 11.366
35.6015 12.163
35.6121 12.429
35.6226 13.348
35.6331 14.287
35.6436 13.511
35.6542 13.899
35.6647 13.960
35.6752 13.756
35.6857 12.949
35.6962 12.898
35.7068 11.754
35.7173 11.132
35.7278 10.733
35.7383 10.080
35.7489 9.109
35.7594 8.599
35.7699 7.404
35.7804 6.863
35.7909 6.413
35.8015 6.015
35.8120 5.086
35.8225 4.688
35.8330 4.299
35.8436 4.013
35.8541 3.595
35.8646 3.248
35.8751 2.859
35.8857 2.921
35.8962 2.471
35.9067 2.339
35.9172 2.226
35.9277 1.900
35.9383 2.134
35.9488 1.900
35.9593 1.665
35.9698 1.532
35.9804 1.317
35.9909 1.348
36.0014 1.338
36.0119 1.379
36.0224 1.246
36.0330 0.980
36.0435 0.940
36.0540 1.042
36.0645 0.909
36.0751 0.817
36.0856 1.011
36.0961 1.001
36.1066 0.746
36.1171 0.797
36.1277 0.950
36.1382 0.766
36.1487 0.848
36.1592 0.858
36.1698 0.725
36.1803 0.817
36.1908 0.746
36.2013 0.715
36.2119 0.807
36.2224 0.725
36.2329 0.878
36.2434 0.786
36.2539 0.827
36.2645 1.052
36.2750 0.940
36.2855 0.970
36.2960 0.766
36.3066 0.888
36.3171 1.154
36.3276 0.950
36.3381 0.858
36.3486 0.940
36.3592 1.103
36.3697 1.225
36.3802 1.052
36.3907 1.215
36.4013 1.246
36.4118 1.348
36.4223 1.266
36.4328 1.379
36.4434 1.757
36.4539 1.930
36.4644 2.053
36.4749 2.002
36.4854 2.339
36.4960 2.431
36.5065 2.471
36.5170 2.839
36.5275 2.921
36.5381 3.401
36.5486 3.533
36.5591 4.003
36.5696 3.401
36.5801 4.065
36.5907 4.136
36.6012 3.911
36.6117 4.126
36.6222 4.657
36.6328 4.565
36.6433 4.861
36.6538 4.156
36.6643 4.218
36.6748 4.463
36.6854 4.238
36.6959 3.962
36.7064 3.840
36.7169 3.564
36.7275 3.544
36.7380 2.982
36.7485 2.768
36.7590 2.502
36.7696 2.574
36.7801 2.226
36.7906 2.339
36.8011 2.155
36.8116 1.757
36.8222 1.726
36.8327 1.654
36.8432 1.481
36.8537 1.256
36.8643 1.297
36.8748 1.205
36.8853 1.123
36.8958 0.960
36.9063 0.960
36.9169 0.735
36.9274 0.960
36.9379 0.766
36.9484 0.746
36.9590 0.694
36.9695 0.766
36.9800 0.684
36.9905 0.664
37.0010 0.725
37.0116 0.633
37.0221 0.674
37.0326 0.603
37.0431 0.541
37.0537 0.449
37.0642 0.500
37.0747 0.511
37.0852 0.398
37.0958 0.643
37.1063 0.398
37.1168 0.521
37.1273 0.368
37.1378 0.480
37.1484 0.470
37.1589 0.531
37.1694 0.470
37.1799 0.337
37.1905 0.408
37.2010 0.347
37.2115 0.398
37.2220 0.317
37.2325 0.327
37.2431 0.408
37.2536 0.337
37.2641 0.337
37.2746 0.439
37.2852 0.408
37.2957 0.460
37.3062 0.306
37.3167 0.490
37.3273 0.306
37.3378 0.398
37.3483 0.337
37.3588 0.490
37.3693 0.357
37.3799 0.245
37.3904 0.337
37.4009 0.408
37.4114 0.470
37.4220 0.378
37.4325 0.480
37.4430 0.419
37.4535 0.357
37.4640 0.327
37.4746 0.419
37.4851 0.460
37.4956 0.317
37.5061 0.337
37.5167 0.582
37.5272 0.490
37.5377 0.368
37.5482 0.439
37.5587 0.419
37.5693 0.562
37.5798 0.368
37.5903 0.470
37.6008 0.439
37.6114 0.643
37.6219 0.460
37.6324 0.551
37.6429 0.470
37.6535 0.511
37.6640 0.490
37.6745 0.551
37.6850 0.746
37.6955 0.684
37.7061 0.746
37.7166 0.592
37.7271 0.725
37.7376 0.633
37.7482 0.868
37.7587 0.776
37.7692 0.725
37.7797 1.083
37.7902 0.980
37.8008 1.358
37.8113 1.093
37.8218 1.348
37.8323 1.328
37.8429 1.624
37.8534 1.624
37.8639 1.900
37.8744 2.042
37.8849 2.431
37.8955 2.420
37.9060 2.574
37.9165 2.482
37.9270 2.788
37.9376 2.849
37.9481 3.207
37.9586 3.002
37.9691 3.207
37.9797 2.859
37.9902 3.084
38.0007 2.778
38.0112 3.013
38.0217 2.614
38.0323 2.625
38.0428 2.441
38.0533 2.318
38.0638 2.032
38.0744 2.104
38.0849 2.022
38.0954 1.644
38.1059 1.399
38.1164 1.563
38.1270 1.440
38.1375 1.420
38.1480 1.042
38.1585 1.083
38.1691 0.960
38.1796 0.960
38.1901 0.735
38.2006 0.827
38.2112 0.858
38.2217 0.746
38.2322 0.817
38.2427 0.664
38.2532 0.664
38.2638 0.674
38.2743 0.623
38.2848 0.735
38.2953 0.715
38.3059 0.756
38.3164 0.551
38.3269 0.623
38.3374 0.521
38.3479 0.551
38.3585 0.500
38.3690 0.398
38.3795 0.511
38.3900 0.449
38.4006 0.378
38.4111 0.500
38.4216 0.378
38.4321 0.490
38.4426 0.388
38.4532 0.419
38.4637 0.357
38.4742 0.317
38.4847 0.245
38.4953 0.398
38.5058 0.245
38.5163 0.398
38.5268 0.449
38.5374 0.388
38.5479 0.255
38.5584 0.317
38.5689 0.306
38.5794 0.306
38.5900 0.388
38.6005 0.266
38.6110 0.327
38.6215 0.368
38.6321 0.357
38.6426 0.296
38.6531 0.286
38.6636 0.225
38.6741 0.419
38.6847 0.429
38.6952 0.347
38.7057 0.266
38.7162 0.266
38.7268 0.347
38.7373 0.276
38.7478 0.490
38.7583 0.388
38.7689 0.337
38.7794 0.317
38.7899 0.276
38.8004 0.214
38.8109 0.378
38.8215 0.255
38.8320 0.327
38.8425 0.235
38.8530 0.368
38.8636 0.296
38.8741 0.296
38.8846 0.286
38.8951 0.357
38.9056 0.296
38.9162 0.460
38.9267 0.337
38.9372 0.235
38.9477 0.296
38.9583 0.388
38.9688 0.306
38.9793 0.306
38.9898 0.419
39.0003 0.276
39.0109 0.388
39.0214 0.357
39.0319 0.357
39.0424 0.327
39.0530 0.460
39.0635 0.511
39.0740 0.378
39.0845 0.511
39.0951 0.562
39.1056 0.490
39.1161 0.449
39.1266 0.541
39.1371 0.500
39.1477 0.623
39.1582 0.582
39.1687 0.705
39.1792 0.848
39.1898 0.735
39.2003 0.786
39.2108 0.960
39.2213 1.083
39.2318 1.195
39.2424 1.266
39.2529 1.328
39.2634 1.317
39.2739 1.481
39.2845 1.460
39.2950 1.685
39.3055 1.797
39.3160 1.869
39.3265 2.165
39.3371 1.869
39.3476 1.951
39.3581 2.002
39.3686 1.808
39.3792 1.910
39.3897 1.787
39.4002 1.634
39.4107 1.797
39.4213 1.460
39.4318 1.338
39.4423 1.746
39.4528 1.379
39.4633 1.256
39.4739 1.225
39.4844 1.379
39.4949 1.134
39.5054 1.011
39.5160 1.134
39.5265 1.113
39.5370 1.042
39.5475 1.338
39.5580 1.266
39.5686 1.348
39.5791 1.522
39.5896 1.358
39.6001 1.522
39.6107 2.032
39.6212 1.665
39.6317 1.838
39.6422 2.063
39.6528 2.216
39.6633 2.400
39.6738 2.277
39.6843 2.696
39.6948 3.013
39.7054 3.227
39.7159 3.013
39.7264 3.278
39.7369 3.186
39.7475 3.574
39.7580 3.819
39.7685 3.636
39.7790 3.687
39.7895 3.687
39.8001 4.320
39.8106 4.197
39.8211 3.932
39.8316 4.361
39.8422 4.167
39.8527 4.381
39.8632 3.922
39.8737 3.738
39.8842 3.850
39.8948 3.544
39.9053 3.513
39.9158 3.380
39.9263 2.829
39.9369 2.482
39.9474 2.563
39.9579 2.104
39.9684 2.512
39.9790 1.930
39.9895 1.961
40.0000 1.542
40.0105 2.145
40.0210 1.501
40.0316 1.389
40.0421 1.348
40.0526 1.083
40.0631 1.205
40.0737 1.083
40.0842 0.960
40.0947 0.797
40.1052 0.786
40.1157 0.746
40.1263 0.633
40.1368 0.817
40.1473 0.572
40.1578 0.735
40.1684 0.694
40.1789 0.664
40.1894 0.643
40.1999 0.562
40.2104 0.562
40.2210 0.480
40.2315 0.398
40.2420 0.398
40.2525 0.470
40.2631 0.408
40.2736 0.368
40.2841 0.429
40.2946 0.378
40.3052 0.357
40.3157 0.449
40.3262 0.317
40.3367 0.296
40.3472 0.266
40.3578 0.419
40.3683 0.317
40.3788 0.347
40.3893 0.337
40.3999 0.306
40.4104 0.378
40.4209 0.368
40.4314 0.317
40.4419 0.378
40.4525 0.286
40.4630 0.357
40.4735 0.296
40.4840 0.378
40.4946 0.398
40.5051 0.214
40.5156 0.266
40.5261 0.337
40.5367 0.296
40.5472 0.194
40.5577 0.235
40.5682 0.296
40.5787 0.266
40.5893 0.163
40.5998 0.245
40.6103 0.317
40.6208 0.296
40.6314 0.245
40.6419 0.214
40.6524 0.225
40.6629 0.306
40.6734 0.225
40.6840 0.255
40.6945 0.235
40.7050 0.225
40.7155 0.327
40.7261 0.174
40.7366 0.347
40.7471 0.204
40.7576 0.163
40.7681 0.194
40.7787 0.225
40.7892 0.266
40.7997 0.255
40.8102 0.266
40.8208 0.214
40.8313 0.214
40.8418 0.276
40.8523 0.225
40.8629 0.143
40.8734 0.245
40.8839 0.225
40.8944 0.225
40.9049 0.194
40.9155 0.286
40.9260 0.306
40.9365 0.276
40.9470 0.317
40.9576 0.276
40.9681 0.204
40.9786 0.296
40.9891 0.235
40.9996 0.112
41.0102 0.194
41.0207 0.317
41.0312 0.245
41.0417 0.153
41.0523 0.153
41.0628 0.306
41.0733 0.153
41.0838 0.214
41.0943 0.133
41.1049 0.245
41.1154 0.214
41.1259 0.266
41.1364 0.184
41.1470 0.266
41.1575 0.204
41.1680 0.245
41.1785 0.255
41.1891 0.174
41.1996 0.214
41.2101 0.184
41.2206 0.194
41.2311 0.143
41.2417 0.317
41.2522 0.235
41.2627 0.204
41.2732 0.276
41.2838 0.276
41.2943 0.225
41.3048 0.214
41.3153 0.266
41.3258 0.266
41.3364 0.276
41.3469 0.296
41.3574 0.153
41.3679 0.204
41.3785 0.163
41.3890 0.133
41.3995 0.204
41.4100 0.174
41.4206 0.225
41.4311 0.133
41.4416 0.266
41.4521 0.317
41.4626 0.245
41.4732 0.266
41.4837 0.174
41.4942 0.337
41.5047 0.184
41.5153 0.306
41.5258 0.296
41.5363 0.214
41.5468 0.225
41.5573 0.225
41.5679 0.235
41.5784 0.245
41.5889 0.398
41.5994 0.245
41.6100 0.255
41.6205 0.245
41.6310 0.266
41.6415 0.286
41.6520 0.327
41.6626 0.245
41.6731 0.337
41.6836 0.266
41.6941 0.327
41.7047 0.276
41.7152 0.327
41.7257 0.245
41.7362 0.306
41.7468 0.357
41.7573 0.368
41.7678 0.266
41.7783 0.174
41.7888 0.225
41.7994 0.296
41.8099 0.327
41.8204 0.306
41.8309 0.276
41.8415 0.214
41.8520 0.296
41.8625 0.327
41.8730 0.235
41.8835 0.245
41.8941 0.255
41.9046 0.327
41.9151 0.429
41.9256 0.337
41.9362 0.368
41.9467 0.368
41.9572 0.378
41.9677 0.521
41.9783 0.531
41.9888 0.449
41.9993 0.480
42.0098 0.449
42.0203 0.500
42.0309 0.654
42.0414 0.572
42.0519 0.664
42.0624 0.766
42.0730 0.858
42.0835 0.858
42.0940 1.001
42.1045 1.001
42.1150 1.164
42.1256 1.225
42.1361 1.440
42.1466 1.307
42.1571 1.491
42.1677 1.746
42.1782 1.859
42.1887 2.206
42.1992 2.400
42.2097 2.237
42.2203 2.267
42.2308 2.798
42.2413 2.645
42.2518 2.390
42.2624 2.298
42.2729 2.328
42.2834 2.533
42.2939 2.318
42.3045 2.165
42.3150 2.165
42.3255 2.216
42.3360 1.930
42.3465 1.777
42.3571 1.654
42.3676 1.501
42.3781 1.338
42.3886 1.154
42.3992 1.215
42.4097 1.174
42.4202 1.021
42.4307 1.052
42.4412 0.980
42.4518 1.134
42.4623 0.715
42.4728 0.664
42.4833 0.654
42.4939 0.603
42.5044 0.541
42.5149 0.664
42.5254 0.562
42.5359 0.419
42.5465 0.398
42.5570 0.470
42.5675 0.327
42.5780 0.439
42.5886 0.449
42.5991 0.296
42.6096 0.286
42.6201 0.388
42.6307 0.357
42.6412 0.276
42.6517 0.245
42.6622 0.235
42.6727 0.317
42.6833 0.357
42.6938 0.306
42.7043 0.194
42.7148 0.235
42.7254 0.296
42.7359 0.235
42.7464 0.235
42.7569 0.398
42.7674 0.235
42.7780 0.276
42.7885 0.204
42.7990 0.245
42.8095 0.276
42.8201 0.245
42.8306 0.266
42.8411 0.225
42.8516 0.235
42.8622 0.174
42.8727 0.255
42.8832 0.163
42.8937 0.225
42.9042 0.225
42.9148 0.245
42.9253 0.245
42.9358 0.143
42.9463 0.174
42.9569 0.255
42.9674 0.357
42.9779 0.255
42.9884 0.255
42.9989 0.235
43.0095 0.204
43.0200 0.133
43.0305 0.255
43.0410 0.153
43.0516 0.286
43.0621 0.153
43.0726 0.245
43.0831 0.225
43.0936 0.204
43.1042 0.276
43.1147 0.184
43.1252 0.255
43.1357 0.296
43.1463 0.235
43.1568 0.214
43.1673 0.225
43.1778 0.194
43.1884 0.286
43.1989 0.214
43.2094 0.235
43.2199 0.163
43.2304 0.286
43.2410 0.214
43.2515 0.266
43.2620 0.194
43.2725 0.204
43.2831 0.184
43.2936 0.214
43.3041 0.194
43.3146 0.184
43.3251 0.276
43.3357 0.163
43.3462 0.214
43.3567 0.225
43.3672 0.214
43.3778 0.266
43.3883 0.317
43.3988 0.174
43.4093 0.276
43.4198 0.163
43.4304 0.225
43.4409 0.255
43.4514 0.214
43.4619 0.204
43.4725 0.123
43.4830 0.194
43.4935 0.184
43.5040 0.286
43.5146 0.266
43.5251 0.225
43.5356 0.286
43.5461 0.266
43.5566 0.184
43.5672 0.153
43.5777 0.174
43.5882 0.276
43.5987 0.163
43.6093 0.286
43.6198 0.235
43.6303 0.143
43.6408 0.286
43.6513 0.133
43.6619 0.225
43.6724 0.245
43.6829 0.245
43.6934 0.163
43.7040 0.184
43.7145 0.235
43.7250 0.194
43.7355 0.245
43.7461 0.245
43.7566 0.245
43.7671 0.184
43.7776 0.204
43.7881 0.327
43.7987 0.225
43.8092 0.204
43.8197 0.245
43.8302 0.184
43.8408 0.184
43.8513 0.235
43.8618 0.327
43.8723 0.225
43.8828 0.204
43.8934 0.174
43.9039 0.214
43.9144 0.225
43.9249 0.194
43.9355 0.245
43.9460 0.214
43.9565 0.245
43.9670 0.266
43.9775 0.286
43.9881 0.194
43.9986 0.204
44.0091 0.357
44.0196 0.214
44.0302 0.306
44.0407 0.255
44.0512 0.194
44.0617 0.255
44.0723 0.194
44.0828 0.368
44.0933 0.327
44.1038 0.306
44.1143 0.245
44.1249 0.306
44.1354 0.408
44.1459 0.225
44.1564 0.306
44.1670 0.337
44.1775 0.368
44.1880 0.286
44.1985 0.347
44.2090 0.327
44.2196 0.337
44.2301 0.327
44.2406 0.357
44.2511 0.368
44.2617 0.306
44.2722 0.388
44.2827 0.347
44.2932 0.408
44.3037 0.419
44.3143 0.266
44.3248 0.429
44.3353 0.500
44.3458 0.613
44.3564 0.562
44.3669 0.572
44.3774 0.623
44.3879 0.664
44.3985 0.643
44.4090 0.868
44.4195 0.725
44.4300 0.725
44.4405 0.746
44.4511 0.827
44.4616 0.970
44.4721 0.786
44.4826 0.909
44.4932 0.837
44.5037 0.858
44.5142 0.797
44.5247 0.694
44.5352 0.776
44.5458 0.868
44.5563 0.684
44.5668 0.807
44.5773 0.572
44.5879 0.776
44.5984 0.449
44.6089 0.715
44.6194 0.633
44.6300 0.551
44.6405 0.480
44.6510 0.480
44.6615 0.531
44.6720 0.490
44.6826 0.449
44.6931 0.470
44.7036 0.551
44.7141 0.449
44.7247 0.470
44.7352 0.347
44.7457 0.470
44.7562 0.398
44.7667 0.419
44.7773 0.306
44.7878 0.460
44.7983 0.337
44.8088 0.296
44.8194 0.480
44.8299 0.368
44.8404 0.480
44.8509 0.388
44.8614 0.511
44.8720 0.439
44.8825 0.511
44.8930 0.460
44.9035 0.541
44.9141 0.521
44.9246 0.500
44.9351 0.776
44.9456 0.613
44.9562 0.623
44.9667 0.684
44.9772 0.654
44.9877 0.766
44.9982 0.756
45.0088 0.766
45.0193 0.827
45.0298 0.929
45.0403 0.786
45.0509 0.735
45.0614 0.766
45.0719 0.827
45.0824 0.531
45.0929 0.643
45.1035 0.531
45.1140 0.694
45.1245 0.511
45.1350 0.572
45.1456 0.582
45.1561 0.470
45.1666 0.408
45.1771 0.460
45.1877 0.337
45.1982 0.266
45.2087 0.449
45.2192 0.276
45.2297 0.286
45.2403 0.286
45.2508 0.368
45.2613 0.235
45.2718 0.378
45.2824 0.225
45.2929 0.225
45.3034 0.255
45.3139 0.357
45.3244 0.266
45.3350 0.255
45.3455 0.255
45.3560 0.276
45.3665 0.337
45.3771 0.317
45.3876 0.286
45.3981 0.214
45.4086 0.306
45.4191 0.163
45.4297 0.245
45.4402 0.255
45.4507 0.214
45.4612 0.163
45.4718 0.306
45.4823 0.214
45.4928 0.143
45.5033 0.286
45.5139 0.225
45.5244 0.184
45.5349 0.255
45.5454 0.255
45.5559 0.245
45.5665 0.123
45.5770 0.245
45.5875 0.214
45.5980 0.225
45.6086 0.204
45.6191 0.204
45.6296 0.174
45.6401 0.184
45.6506 0.245
45.6612 0.194
45.6717 0.286
45.6822 0.123
45.6927 0.225
45.7033 0.143
45.7138 0.235
45.7243 0.245
45.7348 0.245
45.7453 0.214
45.7559 0.174
45.7664 0.174
45.7769 0.245
45.7874 0.194
45.7980 0.174
45.8085 0.266
45.8190 0.204
45.8295 0.133
45.8401 0.174
45.8506 0.245
45.8611 0.204
45.8716 0.194
45.8821 0.194
45.8927 0.204
45.9032 0.163
45.9137 0.174
45.9242 0.276
45.9348 0.143
45.9453 0.184
45.9558 0.255
45.9663 0.317
45.9768 0.194
45.9874 0.184
45.9979 0.266
46.0084 0.184
46.0189 0.163
46.0295 0.214
46.0400 0.255
46.0505 0.286
46.0610 0.174
46.0716 0.153
46.0821 0.194
46.0926 0.266
46.1031 0.214
46.1136 0.266
46.1242 0.194
46.1347 0.153
46.1452 0.317
46.1557 0.174
46.1663 0.245
46.1768 0.245
46.1873 0.235
46.1978 0.194
46.2083 0.174
46.2189 0.276
46.2294 0.286
46.2399 0.245
46.2504 0.388
46.2610 0.286
46.2715 0.286
46.2820 0.388
46.2925 0.327
46.3030 0.235
46.3136 0.306
46.3241 0.306
46.3346 0.337
46.3451 0.429
46.3557 0.357
46.3662 0.357
46.3767 0.429
46.3872 0.449
46.3978 0.521
46.4083 0.419
46.4188 0.388
46.4293 0.511
46.4398 0.327
46.4504 0.317
46.4609 0.357
46.4714 0.388
46.4819 0.408
46.4925 0.327
46.5030 0.449
46.5135 0.388
46.5240 0.245
46.5345 0.490
46.5451 0.449
46.5556 0.368
46.5661 0.317
46.5766 0.327
46.5872 0.255
46.5977 0.235
46.6082 0.296
46.6187 0.357
46.6292 0.347
46.6398 0.276
46.6503 0.317
46.6608 0.245
46.6713 0.174
46.6819 0.204
46.6924 0.204
46.7029 0.327
46.7134 0.306
46.7240 0.225
46.7345 0.225
46.7450 0.225
46.7555 0.255
46.7660 0.204
46.7766 0.306
46.7871 0.225
46.7976 0.214
46.8081 0.102
46.8187 0.235
46.8292 0.184
46.8397 0.245
46.8502 0.306
46.8607 0.245
46.8713 0.194
46.8818 0.174
46.8923 0.204
46.9028 0.225
46.9134 0.184
46.9239 0.235
46.9344 0.194
46.9449 0.214
46.9555 0.245
46.9660 0.163
46.9765 0.266
46.9870 0.214
46.9975 0.143
47.0081 0.245
47.0186 0.194
47.0291 0.194
47.0396 0.204
47.0502 0.204
47.0607 0.245
47.0712 0.235
47.0817 0.255
47.0922 0.174
47.1028 0.225
47.1133 0.184
47.1238 0.235
47.1343 0.184
47.1449 0.286
47.1554 0.214
47.1659 0.153
47.1764 0.225
47.1869 0.163
47.1975 0.194
47.2080 0.276
47.2185 0.153
47.2290 0.133
47.2396 0.184
47.2501 0.123
47.2606 0.245
47.2711 0.174
47.2817 0.184
47.2922 0.255
47.3027 0.153
47.3132 0.255
47.3237 0.194
47.3343 0.225
47.3448 0.255
47.3553 0.163
47.3658 0.153
47.3764 0.255
47.3869 0.174
47.3974 0.163
47.4079 0.266
47.4184 0.133
47.4290 0.153
47.4395 0.214
47.4500 0.286
47.4605 0.184
47.4711 0.194
47.4816 0.327
47.4921 0.214
47.5026 0.225
47.5131 0.245
47.5237 0.214
47.5342 0.296
47.5447 0.153
47.5552 0.112
47.5658 0.255
47.5763 0.286
47.5868 0.214
47.5973 0.184
47.6079 0.082
47.6184 0.163
47.6289 0.112
47.6394 0.204
47.6499 0.194
47.6605 0.194
47.6710 0.174
47.6815 0.204
47.6920 0.225
47.7026 0.153
47.7131 0.296
47.7236 0.112
47.7341 0.225
47.7446 0.194
47.7552 0.255
47.7657 0.225
47.7762 0.245
47.7867 0.174
47.7973 0.235
47.8078 0.174
47.8183 0.194
47.8288 0.112
47.8394 0.204
47.8499 0.153
47.8604 0.204
47.8709 0.163
47.8814 0.255
47.8920 0.255
47.9025 0.235
47.9130 0.214
47.9235 0.235
47.9341 0.214
47.9446 0.245
47.9551 0.266
47.9656 0.276
47.9761 0.255
47.9867 0.317
47.9972 0.306
48.0077 0.276
48.0182 0.357
48.0288 0.347
48.0393 0.347
48.0498 0.296
48.0603 0.266
48.0708 0.460
48.0814 0.347
48.0919 0.398
48.1024 0.408
48.1129 0.378
48.1235 0.378
48.1340 0.306
48.1445 0.378
48.1550 0.347
48.1656 0.368
48.1761 0.368
48.1866 0.408
48.1971 0.255
48.2076 0.378
48.2182 0.317
48.2287 0.378
48.2392 0.296
48.2497 0.276
48.2603 0.368
48.2708 0.214
48.2813 0.255
48.2918 0.276
48.3023 0.245
48.3129 0.235
48.3234 0.245
48.3339 0.225
48.3444 0.317
48.3550 0.276
48.3655 0.286
48.3760 0.204
48.3865 0.194
48.3970 0.214
48.4076 0.266
48.4181 0.225
48.4286 0.327
48.4391 0.225
48.4497 0.245
48.4602 0.153
48.4707 0.276
48.4812 0.255
48.4918 0.266
48.5023 0.245
48.5128 0.214
48.5233 0.296
48.5338 0.204
48.5444 0.235
48.5549 0.245
48.5654 0.235
48.5759 0.255
48.5865 0.174
48.5970 0.225
48.6075 0.255
48.6180 0.214
48.6285 0.245
48.6391 0.235
48.6496 0.276
48.6601 0.276
48.6706 0.194
48.6812 0.245
48.6917 0.245
48.7022 0.174
48.7127 0.184
48.7233 0.255
48.7338 0.266
48.7443 0.255
48.7548 0.347
48.7653 0.327
48.7759 0.235
48.7864 0.245
48.7969 0.296
48.8074 0.296
48.8180 0.357
48.8285 0.214
48.8390 0.296
48.8495 0.317
48.8600 0.306
48.8706 0.419
48.8811 0.255
48.8916 0.408
48.9021 0.337
48.9127 0.255
48.9232 0.419
48.9337 0.357
48.9442 0.592
48.9547 0.306
48.9653 0.531
48.9758 0.551
48.9863 0.470
48.9968 0.511
49.0074 0.419
49.0179 0.419
49.0284 0.347
49.0389 0.551
49.0495 0.511
49.0600 0.541
49.0705 0.613
49.0810 0.500
49.0915 0.633
49.1021 0.684
49.1126 0.786
49.1231 0.715
49.1336 0.786
49.1442 0.817
49.1547 1.001
49.1652 1.001
49.1757 1.174
49.1862 1.215
49.1968 1.164
49.2073 1.440
49.2178 1.481
49.2283 1.358
49.2389 1.297
49.2494 1.634
49.2599 1.614
49.2704 1.511
49.2810 1.695
49.2915 1.808
49.3020 1.726
49.3125 1.685
49.3230 1.348
49.3336 1.634
49.3441 1.675
49.3546 1.624
49.3651 1.287
49.3757 1.471
49.3862 1.358
49.3967 1.389
49.4072 0.960
49.4177 1.093
49.4283 1.052
49.4388 0.970
49.4493 0.940
49.4598 0.960
49.4704 1.021
49.4809 0.827
49.4914 0.837
49.5019 0.694
49.5124 0.827
49.5230 0.746
49.5335 0.572
49.5440 0.674
49.5545 0.725
49.5651 0.725
49.5756 0.776
49.5861 0.490
49.5966 0.694
49.6072 0.572
49.6177 0.511
49.6282 0.419
49.6387 0.500
49.6492 0.429
49.6598 0.541
49.6703 0.562
49.6808 0.408
49.6913 0.398
49.7019 0.460
49.7124 0.460
49.7229 0.449
49.7334 0.439
49.7439 0.378
49.7545 0.398
49.7650 0.347
49.7755 0.449
49.7860 0.368
49.7966 0.460
49.8071 0.378
49.8176 0.286
49.8281 0.521
49.8386 0.439
49.8492 0.511
49.8597 0.419
49.8702 0.408
49.8807 0.603
49.8913 0.368
49.9018 0.449
49.9123 0.664
49.9228 0.368
49.9334 0.470
49.9439 0.500
49.9544 0.480
49.9649 0.562
49.9754 0.521
49.9860 0.603
49.9965 0.694
50.0070 0.613
50.0175 0.572
50.0281 0.592
50.0386 0.694
50.0491 0.797
50.0596 0.664
50.0701 0.776
50.0807 0.786
50.0912 0.797
50.1017 0.725
50.1122 0.950
50.1228 0.899
50.1333 0.858
50.1438 0.991
50.1543 0.991
50.1649 0.858
50.1754 1.052
50.1859 0.950
50.1964 0.991
50.2069 1.246
50.2175 1.297
50.2280 1.021
50.2385 1.001
50.2490 1.215
50.2596 1.205
50.2701 1.154
50.2806 1.277
50.2911 1.450
50.3016 1.614
50.3122 1.440
50.3227 1.532
50.3332 1.491
50.3437 1.726
50.3543 1.828
50.3648 1.859
50.3753 1.685
50.3858 1.716
50.3963 2.196
50.4069 2.247
50.4174 2.124
50.4279 1.879
50.4384 1.879
50.4490 1.818
50.4595 1.940
50.4700 1.828
50.4805 1.869
50.4911 1.808
50.5016 1.910
50.5121 2.022
50.5226 1.940
50.5331 1.665
50.5437 1.685
50.5542 1.644
50.5647 1.889
50.5752 1.757
50.5858 1.726
50.5963 1.859
50.6068 1.716
50.6173 1.726
50.6278 1.644
50.6384 1.848
50.6489 1.583
50.6594 1.522
50.6699 1.501
50.6805 1.328
50.6910 1.573
50.7015 1.195
50.7120 1.297
50.7225 1.185
50.7331 1.154
50.7436 1.031
50.7541 0.991
50.7646 1.042
50.7752 0.909
50.7857 0.837
50.7962 0.694
50.8067 0.827
50.8173 0.643
50.8278 0.735
50.8383 0.633
50.8488 0.582
50.8593 0.592
50.8699 0.460
50.8804 0.776
50.8909 0.419
50.9014 0.746
50.9120 0.357
50.9225 0.500
50.9330 0.521
50.9435 0.551
50.9540 0.286
50.9646 0.439
50.9751 0.398
50.9856 0.388
50.9961 0.419
51.0067 0.337
51.0172 0.368
51.0277 0.317
51.0382 0.408
51.0488 0.266
51.0593 0.378
51.0698 0.317
51.0803 0.286
51.0908 0.408
51.1014 0.306
51.1119 0.255
51.1224 0.317
51.1329 0.266
51.1435 0.337
51.1540 0.266
51.1645 0.266
51.1750 0.306
51.1855 0.276
51.1961 0.337
51.2066 0.143
51.2171 0.235
51.2276 0.266
51.2382 0.225
51.2487 0.276
51.2592 0.286
51.2697 0.255
51.2802 0.337
51.2908 0.245
51.3013 0.276
51.3118 0.235
51.3223 0.255
51.3329 0.276
51.3434 0.245
51.3539 0.286
51.3644 0.276
51.3750 0.225
51.3855 0.163
51.3960 0.174
51.4065 0.235
51.4170 0.214
51.4276 0.194
51.4381 0.225
51.4486 0.286
51.4591 0.286
51.4697 0.235
51.4802 0.286
51.4907 0.225
51.5012 0.214
51.5117 0.194
51.5223 0.235
51.5328 0.214
51.5433 0.266
51.5538 0.225
51.5644 0.184
51.5749 0.306
51.5854 0.204
51.5959 0.245
51.6064 0.184
51.6170 0.296
51.6275 0.266
51.6380 0.327
51.6485 0.306
51.6591 0.174
51.6696 0.225
51.6801 0.286
51.6906 0.276
51.7012 0.255
51.7117 0.306
51.7222 0.276
51.7327 0.347
51.7432 0.235
51.7538 0.347
51.7643 0.276
51.7748 0.214
51.7853 0.286
51.7959 0.337
51.8064 0.266
51.8169 0.347
51.8274 0.378
51.8379 0.357
51.8485 0.317
51.8590 0.296
51.8695 0.286
51.8800 0.306
51.8906 0.245
51.9011 0.266
51.9116 0.327
51.9221 0.286
51.9327 0.266
51.9432 0.214
51.9537 0.327
51.9642 0.306
51.9747 0.470
51.9853 0.378
51.9958 0.327
52.0063 0.460
52.0168 0.296
52.0274 0.357
52.0379 0.368
52.0484 0.306
52.0589 0.460
52.0694 0.449
52.0800 0.368
52.0905 0.286
52.1010 0.623
52.1115 0.419
52.1221 0.572
52.1326 0.439
52.1431 0.439
52.1536 0.439
52.1641 0.531
52.1747 0.449
52.1852 0.460
52.1957 0.786
52.2062 0.521
52.2168 0.572
52.2273 0.694
52.2378 0.827
52.2483 0.674
52.2589 0.582
52.2694 0.858
52.2799 0.888
52.2904 1.021
52.3009 0.980
52.3115 1.052
52.3220 1.083
52.3325 1.001
52.3430 1.215
52.3536 1.430
52.3641 1.481
52.3746 1.685
52.3851 1.522
52.3956 1.777
52.4062 1.695
52.4167 2.288
52.4272 2.104
52.4377 2.216
52.4483 2.308
52.4588 2.553
52.4693 2.931
52.4798 3.043
52.4904 3.125
52.5009 3.431
52.5114 3.973
52.5219 3.983
52.5324 4.493
52.5430 4.126
52.5535 3.922
52.5640 4.718
52.5745 4.350
52.5851 4.575
52.5956 4.606
52.6061 4.442
52.6166 4.830
52.6271 4.861
52.6377 4.422
52.6482 4.340
52.6587 4.473
52.6692 3.911
52.6798 4.218
52.6903 3.983
52.7008 3.789
52.7113 3.574
52.7218 3.493
52.7324 3.442
52.7429 3.319
52.7534 3.145
52.7639 2.992
52.7745 2.492
52.7850 2.492
52.7955 2.379
52.8060 2.461
52.8166 2.553
52.8271 2.451
52.8376 2.032
52.8481 2.104
52.8586 1.818
52.8692 1.695
52.8797 1.808
52.8902 1.685
52.9007 1.614
52.9113 1.665
52.9218 1.399
52.9323 1.379
52.9428 1.522
52.9533 1.389
52.9639 1.256
52.9744 1.205
52.9849 1.021
52.9954 1.042
53.0060 0.991
53.0165 0.909
53.0270 0.940
53.0375 0.970
53.0480 0.888
53.0586 0.837
53.0691 0.756
53.0796 0.848
53.0901 0.837
53.1007 0.623
53.1112 0.725
53.1217 0.674
53.1322 0.623
53.1428 0.746
53.1533 0.551
53.1638 0.715
53.1743 0.664
53.1848 0.705
53.1954 0.521
53.2059 0.551
53.2164 0.603
53.2269 0.541
53.2375 0.643
53.2480 0.480
53.2585 0.562
53.2690 0.541
53.2795 0.408
53.2901 0.480
53.3006 0.317
53.3111 0.439
53.3216 0.521
53.3322 0.388
53.3427 0.490
53.3532 0.449
53.3637 0.521
53.3743 0.398
53.3848 0.337
53.3953 0.398
53.4058 0.511
53.4163 0.429
53.4269 0.266
53.4374 0.235
53.4479 0.398
53.4584 0.255
53.4690 0.398
53.4795 0.378
53.4900 0.357
53.5005 0.378
53.5110 0.306
53.5216 0.357
53.5321 0.255
53.5426 0.235
53.5531 0.296
53.5637 0.306
53.5742 0.245
53.5847 0.276
53.5952 0.276
53.6057 0.286
53.6163 0.245
53.6268 0.235
53.6373 0.245
53.6478 0.286
53.6584 0.235
53.6689 0.286
53.6794 0.347
53.6899 0.296
53.7005 0.204
53.7110 0.204
53.7215 0.317
53.7320 0.286
53.7425 0.235
53.7531 0.245
53.7636 0.245
53.7741 0.255
53.7846 0.255
53.7952 0.245
53.8057 0.225
53.8162 0.276
53.8267 0.276
53.8372 0.276
53.8478 0.163
53.8583 0.184
53.8688 0.235
53.8793 0.235
53.8899 0.306
53.9004 0.225
53.9109 0.194
53.9214 0.214
53.9319 0.204
53.9425 0.286
53.9530 0.194
53.9635 0.225
53.9740 0.286
53.9846 0.153
53.9951 0.255
54.0056 0.255
54.0161 0.347
54.0267 0.286
54.0372 0.255
54.0477 0.184
54.0582 0.317
54.0687 0.174
54.0793 0.214
54.0898 0.194
54.1003 0.235
54.1108 0.153
54.1214 0.266
54.1319 0.153
54.1424 0.255
54.1529 0.378
54.1634 0.225
54.1740 0.225
54.1845 0.296
54.1950 0.327
54.2055 0.245
54.2161 0.235
54.2266 0.286
54.2371 0.214
54.2476 0.266
54.2582 0.174
54.2687 0.306
54.2792 0.245
54.2897 0.255
54.3002 0.337
54.3108 0.286
54.3213 0.317
54.3318 0.194
54.3423 0.296
54.3529 0.296
54.3634 0.357
54.3739 0.296
54.3844 0.266
54.3949 0.276
54.4055 0.306
54.4160 0.317
54.4265 0.388
54.4370 0.347
54.4476 0.286
54.4581 0.306
54.4686 0.204
54.4791 0.255
54.4896 0.286
54.5002 0.255
54.5107 0.408
54.5212 0.408
54.5317 0.235
54.5423 0.317
54.5528 0.408
54.5633 0.347
54.5738 0.368
54.5844 0.327
54.5949 0.439
54.6054 0.378
54.6159 0.408
54.6264 0.286
54.6370 0.429
54.6475 0.347
54.6580 0.470
54.6685 0.449
54.6791 0.378
54.6896 0.419
54.7001 0.531
54.7106 0.357
54.7211 0.511
54.7317 0.500
54.7422 0.490
54.7527 0.572
54.7632 0.551
54.7738 0.684
54.7843 0.562
54.7948 0.551
54.8053 0.705
54.8158 0.858
54.8264 0.705
54.8369 0.878
54.8474 1.062
54.8579 1.052
54.8685 1.062
54.8790 0.950
54.8895 1.317
54.9000 1.205
54.9106 1.338
54.9211 1.552
54.9316 1.338
54.9421 1.746
54.9526 1.593
54.9632 1.920
54.9737 1.716
54.9842 1.940
54.9947 1.910
55.0053 2.002
55.0158 2.134
55.0263 2.247
55.0368 1.848
55.0473 1.930
55.0579 2.267
55.0684 2.318
55.0789 1.910
55.0894 1.879
55.1000 2.083
55.1105 1.654
55.1210 1.654
55.1315 1.665
55.1421 1.501
55.1526 1.052
55.1631 1.614
55.1736 1.409
55.1841 1.123
55.1947 1.021
55.2052 1.225
55.2157 1.174
55.2262 1.236
55.2368 1.001
55.2473 1.021
55.2578 0.929
55.2683 0.919
55.2788 1.072
55.2894 0.827
55.2999 0.980
55.3104 1.062
55.3209 1.144
55.3315 1.256
55.3420 1.072
55.3525 1.113
55.3630 1.195
55.3735 1.236
55.3841 1.052
55.3946 1.368
55.4051 1.164
55.4156 1.532
55.4262 1.563
55.4367 1.716
55.4472 1.777
55.4577 1.777
55.4683 1.930
55.4788 2.104
55.4893 2.094
55.4998 2.298
55.5103 2.247
55.5209 2.318
55.5314 2.696
55.5419 2.461
55.5524 2.543
55.5630 2.482
55.5735 2.655
55.5840 2.379
55.5945 2.522
55.6050 2.727
55.6156 2.390
55.6261 2.482
55.6366 2.410
55.6471 2.185
55.6577 1.818
55.6682 1.940
55.6787 1.869
55.6892 1.757
55.6998 1.338
55.7103 1.767
55.7208 1.481
55.7313 1.338
55.7418 1.021
55.7524 1.144
55.7629 1.134
55.7734 1.021
55.7839 1.123
55.7945 1.113
55.8050 0.919
55.8155 0.817
55.8260 0.858
55.8365 0.837
55.8471 0.776
55.8576 0.664
55.8681 0.776
55.8786 0.592
55.8892 0.684
55.8997 0.470
55.9102 0.664
55.9207 0.572
55.9312 0.511
55.9418 0.664
55.9523 0.521
55.9628 0.490
55.9733 0.470
55.9839 0.521
55.9944 0.562
56.0049 0.408
56.0154 0.388
56.0260 0.470
56.0365 0.470
56.0470 0.317
56.0575 0.500
56.0680 0.480
56.0786 0.408
56.0891 0.449
56.0996 0.500
56.1101 0.276
56.1207 0.449
56.1312 0.388
56.1417 0.449
56.1522 0.439
56.1627 0.327
56.1733 0.357
56.1838 0.347
56.1943 0.408
56.2048 0.439
56.2154 0.337
56.2259 0.368
56.2364 0.317
56.2469 0.368
56.2574 0.378
56.2680 0.449
56.2785 0.378
56.2890 0.500
56.2995 0.562
56.3101 0.480
56.3206 0.449
56.3311 0.470
56.3416 0.531
56.3522 0.500
56.3627 0.521
56.3732 0.613
56.3837 0.460
56.3942 0.623
56.4048 0.572
56.4153 0.654
56.4258 0.633
56.4363 0.786
56.4469 0.592
56.4574 0.705
56.4679 0.827
56.4784 0.715
56.4889 0.827
56.4995 0.797
56.5100 0.960
56.5205 0.950
56.5310 1.031
56.5416 1.185
56.5521 1.031
56.5626 1.185
56.5731 1.164
56.5837 1.236
56.5942 1.277
56.6047 1.409
56.6152 1.440
56.6257 1.603
56.6363 1.705
56.6468 1.634
56.6573 2.063
56.6678 1.848
56.6784 1.951
56.6889 2.196
56.6994 2.247
56.7099 2.471
56.7204 2.206
56.7310 2.431
56.7415 2.543
56.7520 2.512
56.7625 2.390
56.7731 2.553
56.7836 2.308
56.7941 2.441
56.8046 2.420
56.8151 2.635
56.8257 2.298
56.8362 2.124
56.8467 2.083
56.8572 2.155
56.8678 2.206
56.8783 1.869
56.8888 2.114
56.8993 2.022
56.9099 1.859
56.9204 1.307
56.9309 1.705
56.9414 1.542
56.9519 1.328
56.9625 1.460
56.9730 1.195
56.9835 1.144
56.9940 1.134
57.0046 1.164
57.0151 1.215
57.0256 1.113
57.0361 0.858
57.0466 0.899
57.0572 0.848
57.0677 0.705
57.0782 0.776
57.0887 0.797
57.0993 0.735
57.1098 0.684
57.1203 0.664
57.1308 0.746
57.1413 0.449
57.1519 0.664
57.1624 0.756
57.1729 0.613
57.1834 0.531
57.1940 0.541
57.2045 0.521
57.2150 0.500
57.2255 0.347
57.2361 0.562
57.2466 0.449
57.2571 0.470
57.2676 0.511
57.2781 0.429
57.2887 0.521
57.2992 0.388
57.3097 0.562
57.3202 0.460
57.3308 0.460
57.3413 0.408
57.3518 0.306
57.3623 0.388
57.3728 0.398
57.3834 0.439
57.3939 0.337
57.4044 0.388
57.4149 0.511
57.4255 0.388
57.4360 0.511
57.4465 0.439
57.4570 0.347
57.4676 0.490
57.4781 0.357
57.4886 0.490
57.4991 0.419
57.5096 0.368
57.5202 0.327
57.5307 0.398
57.5412 0.500
57.5517 0.562
57.5623 0.480
57.5728 0.541
57.5833 0.419
57.5938 0.603
57.6043 0.449
57.6149 0.398
57.6254 0.490
57.6359 0.460
57.6464 0.541
57.6570 0.551
57.6675 0.511
57.6780 0.531
57.6885 0.460
57.6990 0.531
57.7096 0.531
57.7201 0.460
57.7306 0.603
57.7411 0.551
57.7517 0.480
57.7622 0.460
57.7727 0.408
57.7832 0.439
57.7938 0.480
57.8043 0.368
57.8148 0.388
57.8253 0.347
57.8358 0.398
57.8464 0.306
57.8569 0.317
57.8674 0.408
57.8779 0.408
57.8885 0.408
57.8990 0.511
57.9095 0.306
57.9200 0.439
57.9305 0.347
57.9411 0.521
57.9516 0.368
57.9621 0.408
57.9726 0.419
57.9832 0.449
57.9937 0.449
58.0042 0.327
58.0147 0.378
58.0252 0.480
58.0358 0.429
58.0463 0.388
58.0568 0.551
58.0673 0.541
58.0779 0.429
58.0884 0.449
58.0989 0.470
58.1094 0.592
58.1200 0.541
58.1305 0.521
58.1410 0.541
58.1515 0.562
58.1620 0.684
58.1726 0.592
58.1831 0.694
58.1936 0.766
58.2041 0.735
58.2147 0.674
58.2252 0.807
58.2357 0.797
58.2462 0.960
58.2567 1.062
58.2673 1.103
58.2778 1.011
58.2883 1.103
58.2988 1.113
58.3094 1.368
58.3199 1.358
58.3304 1.052
58.3409 1.409
58.3515 1.215
58.3620 1.307
58.3725 1.471
58.3830 1.317
58.3935 1.563
58.4041 1.511
58.4146 1.409
58.4251 1.603
58.4356 1.225
58.4462 1.399
58.4567 1.358
58.4672 1.409
58.4777 1.358
58.4882 1.317
58.4988 1.277
58.5093 1.246
58.5198 1.297
58.5303 1.062
58.5409 0.909
58.5514 1.021
58.5619 0.960
58.5724 0.899
58.5829 0.858
58.5935 0.674
58.6040 0.878
58.6145 0.684
58.6250 0.766
58.6356 0.705
58.6461 0.684
58.6566 0.511
58.6671 0.439
58.6777 0.623
58.6882 0.643
58.6987 0.490
58.7092 0.460
58.7197 0.521
58.7303 0.419
58.7408 0.429
58.7513 0.357
58.7618 0.347
58.7724 0.408
58.7829 0.408
58.7934 0.388
58.8039 0.460
58.8144 0.347
58.8250 0.357
58.8355 0.347
58.8460 0.378
58.8565 0.357
58.8671 0.306
58.8776 0.225
58.8881 0.286
58.8986 0.266
58.9091 0.296
58.9197 0.296
58.9302 0.235
58.9407 0.337
58.9512 0.337
58.9618 0.408
58.9723 0.184
58.9828 0.245
58.9933 0.408
59.0039 0.266
59.0144 0.419
59.0249 0.347
59.0354 0.255
59.0459 0.266
59.0565 0.245
59.0670 0.194
59.0775 0.225
59.0880 0.225
59.0986 0.327
59.1091 0.255
59.1196 0.266
59.1301 0.255
59.1406 0.286
59.1512 0.306
59.1617 0.327
59.1722 0.266
59.1827 0.276
59.1933 0.225
59.2038 0.214
59.2143 0.337
59.2248 0.225
59.2354 0.184
59.2459 0.245
59.2564 0.235
59.2669 0.357
59.2774 0.337
59.2880 0.184
59.2985 0.255
59.3090 0.266
59.3195 0.276
59.3301 0.163
59.3406 0.235
59.3511 0.174
59.3616 0.286
59.3721 0.214
59.3827 0.214
59.3932 0.184
59.4037 0.225
59.4142 0.214
59.4248 0.225
59.4353 0.276
59.4458 0.214
59.4563 0.204
59.4668 0.245
59.4774 0.266
59.4879 0.184
59.4984 0.245
59.5089 0.194
59.5195 0.225
59.5300 0.235
59.5405 0.327
59.5510 0.388
59.5616 0.184
59.5721 0.204
59.5826 0.143
59.5931 0.235
59.6036 0.266
59.6142 0.214
59.6247 0.306
59.6352 0.245
59.6457 0.235
59.6563 0.225
59.6668 0.204
59.6773 0.317
59.6878 0.266
59.6983 0.143
59.7089 0.286
59.7194 0.245
59.7299 0.245
59.7404 0.337
59.7510 0.266
59.7615 0.255
59.7720 0.235
59.7825 0.204
59.7931 0.245
59.8036 0.184
59.8141 0.204
59.8246 0.245
59.8351 0.214
59.8457 0.286
59.8562 0.163
59.8667 0.174
59.8772 0.286
59.8878 0.123
59.8983 0.204
59.9088 0.204
59.9193 0.276
59.9298 0.235
59.9404 0.235
59.9509 0.133
59.9614 0.235
59.9719 0.225
59.9825 0.194
59.9930 0.112
60.0035 0.194
60.0140 0.174
60.0245 0.204
60.0351 0.245
60.0456 0.174
60.0561 0.214
60.0666 0.163
60.0772 0.255
60.0877 0.184
60.0982 0.194
60.1087 0.184
60.1193 0.214
60.1298 0.255
60.1403 0.286
60.1508 0.133
60.1613 0.214
60.1719 0.214
60.1824 0.153
60.1929 0.255
60.2034 0.163
60.2140 0.112
60.2245 0.204
60.2350 0.255
60.2455 0.276
60.2560 0.276
60.2666 0.225
60.2771 0.225
60.2876 0.112
60.2981 0.123
60.3087 0.225
60.3192 0.255
60.3297 0.153
60.3402 0.266
60.3507 0.184
60.3613 0.174
60.3718 0.153
60.3823 0.184
60.3928 0.235
60.4034 0.184
60.4139 0.184
60.4244 0.266
60.4349 0.174
60.4455 0.163
60.4560 0.235
60.4665 0.194
60.4770 0.133
60.4875 0.245
60.4981 0.235
60.5086 0.194
60.5191 0.194
60.5296 0.225
60.5402 0.174
60.5507 0.204
60.5612 0.225
60.5717 0.204
60.5822 0.266
60.5928 0.184
60.6033 0.235
60.6138 0.143
60.6243 0.245
60.6349 0.317
60.6454 0.276
60.6559 0.327
60.6664 0.214
60.6770 0.214
60.6875 0.225
60.6980 0.245
60.7085 0.163
60.7190 0.225
60.7296 0.204
60.7401 0.235
60.7506 0.276
60.7611 0.123
60.7717 0.174
60.7822 0.194
60.7927 0.163
60.8032 0.235
60.8137 0.245
60.8243 0.214
60.8348 0.255
60.8453 0.296
60.8558 0.286
60.8664 0.255
60.8769 0.419
60.8874 0.255
60.8979 0.225
60.9084 0.286
60.9190 0.306
60.9295 0.266
60.9400 0.235
60.9505 0.286
60.9611 0.225
60.9716 0.266
60.9821 0.255
60.9926 0.306
61.0032 0.286
61.0137 0.245
61.0242 0.245
61.0347 0.317
61.0452 0.296
61.0558 0.184
61.0663 0.255
61.0768 0.245
61.0873 0.419
61.0979 0.266
61.1084 0.357
61.1189 0.286
61.1294 0.225
61.1399 0.460
61.1505 0.296
61.1610 0.153
61.1715 0.286
61.1820 0.255
61.1926 0.368
61.2031 0.235
61.2136 0.347
61.2241 0.398
61.2346 0.357
61.2452 0.337
61.2557 0.378
61.2662 0.388
61.2767 0.419
61.2873 0.357
61.2978 0.511
61.3083 0.398
61.3188 0.378
61.3294 0.531
61.3399 0.347
61.3504 0.541
61.3609 0.490
61.3714 0.582
61.3820 0.429
61.3925 0.541
61.4030 0.551
61.4135 0.429
61.4241 0.572
61.4346 0.684
61.4451 0.460
61.4556 0.654
61.4661 0.664
61.4767 0.735
61.4872 0.756
61.4977 0.705
61.5082 0.746
61.5188 0.817
61.5293 0.919
61.5398 0.929
61.5503 0.837
61.5609 1.031
61.5714 1.052
61.5819 1.072
61.5924 1.103
61.6029 1.266
61.6135 1.246
61.6240 1.501
61.6345 1.266
61.6450 1.614
61.6556 1.685
61.6661 1.532
61.6766 1.675
61.6871 1.808
61.6976 1.808
61.7082 2.124
61.7187 2.145
61.7292 2.349
61.7397 2.206
61.7503 2.288
61.7608 2.512
61.7713 2.461
61.7818 2.512
61.7923 2.706
61.8029 2.849
61.8134 2.890
61.8239 3.074
61.8344 2.982
61.8450 3.217
61.8555 3.329
61.8660 3.237
61.8765 3.217
61.8871 3.135
61.8976 3.227
61.9081 3.013
61.9186 3.105
61.9291 3.125
61.9397 3.268
61.9502 3.105
61.9607 2.900
61.9712 3.074
61.9818 2.911
61.9923 3.002
62.0028 3.329
62.0133 2.686
62.0238 2.717
62.0344 2.911
62.0449 2.604
62.0554 2.768
62.0659 2.747
62.0765 2.553
62.0870 2.665
62.0975 2.410
62.1080 2.655
62.1185 2.431
62.1291 2.635
62.1396 2.614
62.1501 2.349
62.1606 2.808
62.1712 3.002
62.1817 2.277
62.1922 2.379
62.2027 2.226
62.2133 2.308
62.2238 2.328
62.2343 2.237
62.2448 2.359
62.2553 2.237
62.2659 2.175
62.2764 1.900
62.2869 1.787
62.2974 2.134
62.3080 1.818
62.3185 1.654
62.3290 1.654
62.3395 1.358
62.3500 1.705
62.3606 1.573
62.3711 1.573
62.3816 1.215
62.3921 1.164
62.4027 1.256
62.4132 0.899
62.4237 1.123
62.4342 0.991
62.4448 0.919
62.4553 0.899
62.4658 0.776
62.4763 0.848
62.4868 0.756
62.4974 0.766
62.5079 0.848
62.5184 0.878
62.5289 0.664
62.5395 0.674
62.5500 0.643
62.5605 0.551
62.5710 0.613
62.5815 0.511
62.5921 0.541
62.6026 0.480
62.6131 0.429
62.6236 0.357
62.6342 0.623
62.6447 0.460
62.6552 0.408
62.6657 0.388
62.6762 0.439
62.6868 0.368
62.6973 0.368
62.7078 0.429
62.7183 0.388
62.7289 0.398
62.7394 0.296
62.7499 0.460
62.7604 0.357
62.7710 0.327
62.7815 0.255
62.7920 0.327
62.8025 0.317
62.8130 0.266
62.8236 0.276
62.8341 0.337
62.8446 0.276
62.8551 0.306
62.8657 0.255
62.8762 0.327
62.8867 0.296
62.8972 0.317
62.9077 0.276
62.9183 0.174
62.9288 0.266
62.9393 0.194
62.9498 0.276
62.9604 0.306
62.9709 0.245
62.9814 0.174
62.9919 0.276
63.0025 0.276
63.0130 0.245
63.0235 0.194
63.0340 0.225
63.0445 0.235
63.0551 0.194
63.0656 0.337
63.0761 0.296
63.0866 0.276
63.0972 0.276
63.1077 0.266
63.1182 0.245
63.1287 0.204
63.1392 0.296
63.1498 0.163
63.1603 0.245
63.1708 0.235
63.1813 0.225
63.1919 0.174
63.2024 0.255
63.2129 0.337
63.2234 0.174
63.2339 0.296
63.2445 0.204
63.2550 0.194
63.2655 0.204
63.2760 0.174
63.2866 0.214
63.2971 0.255
63.3076 0.194
63.3181 0.245
63.3287 0.245
63.3392 0.163
63.3497 0.214
63.3602 0.317
63.3707 0.225
63.3813 0.204
63.3918 0.194
63.4023 0.184
63.4128 0.255
63.4234 0.235
63.4339 0.174
63.4444 0.214
63.4549 0.184
63.4654 0.225
63.4760 0.184
63.4865 0.317
63.4970 0.245
63.5075 0.153
63.5181 0.235
63.5286 0.133
63.5391 0.194
63.5496 0.174
63.5601 0.276
63.5707 0.194
63.5812 0.204
63.5917 0.266
63.6022 0.225
63.6128 0.184
63.6233 0.174
63.6338 0.204
63.6443 0.266
63.6549 0.245
63.6654 0.266
63.6759 0.317
63.6864 0.286
63.6969 0.276
63.7075 0.194
63.7180 0.235
63.7285 0.327
63.7390 0.327
63.7496 0.327
63.7601 0.296
63.7706 0.266
63.7811 0.306
63.7916 0.266
63.8022 0.357
63.8127 0.337
63.8232 0.398
63.8337 0.317
63.8443 0.419
63.8548 0.388
63.8653 0.255
63.8758 0.388
63.8864 0.419
63.8969 0.296
63.9074 0.490
63.9179 0.460
63.9284 0.429
63.9390 0.419
63.9495 0.388
63.9600 0.398
63.9705 0.368
63.9811 0.470
63.9916 0.368
64.0021 0.470
64.0126 0.562
64.0231 0.562
64.0337 0.470
64.0442 0.500
64.0547 0.562
64.0652 0.500
64.0758 0.531
64.0863 0.439
64.0968 0.521
64.1073 0.470
64.1178 0.388
64.1284 0.419
64.1389 0.347
64.1494 0.408
64.1599 0.419
64.1705 0.347
64.1810 0.368
64.1915 0.357
64.2020 0.327
64.2126 0.266
64.2231 0.378
64.2336 0.347
64.2441 0.368
64.2546 0.337
64.2652 0.347
64.2757 0.296
64.2862 0.245
64.2967 0.337
64.3073 0.327
64.3178 0.184
64.3283 0.327
64.3388 0.255
64.3493 0.174
64.3599 0.255
64.3704 0.266
64.3809 0.225
64.3914 0.286
64.4020 0.133
64.4125 0.214
64.4230 0.174
64.4335 0.245
64.4440 0.214
64.4546 0.225
64.4651 0.235
64.4756 0.276
64.4861 0.245
64.4967 0.194
64.5072 0.276
64.5177 0.245
64.5282 0.276
64.5388 0.235
64.5493 0.163
64.5598 0.255
64.5703 0.266
64.5808 0.204
64.5914 0.255
64.6019 0.184
64.6124 0.235
64.6229 0.214
64.6335 0.255
64.6440 0.327
64.6545 0.398
64.6650 0.276
64.6755 0.225
64.6861 0.296
64.6966 0.347
64.7071 0.317
64.7176 0.347
64.7282 0.266
64.7387 0.266
64.7492 0.327
64.7597 0.194
64.7703 0.327
64.7808 0.153
64.7913 0.276
64.8018 0.225
64.8123 0.225
64.8229 0.255
64.8334 0.184
64.8439 0.225
64.8544 0.163
64.8650 0.266
64.8755 0.296
64.8860 0.204
64.8965 0.225
64.9070 0.266
64.9176 0.235
64.9281 0.184
64.9386 0.245
64.9491 0.214
64.9597 0.286
64.9702 0.306
64.9807 0.194
64.9912 0.276
65.0017 0.184
65.0123 0.266
65.0228 0.225
65.0333 0.327
65.0438 0.235
65.0544 0.214
65.0649 0.163
65.0754 0.204
65.0859 0.245
65.0965 0.133
65.1070 0.204
65.1175 0.235
65.1280 0.214
65.1385 0.266
65.1491 0.245
65.1596 0.378
65.1701 0.163
65.1806 0.194
65.1912 0.286
65.2017 0.245
65.2122 0.214
65.2227 0.194
65.2332 0.204
65.2438 0.266
65.2543 0.266
65.2648 0.163
65.2753 0.194
65.2859 0.296
65.2964 0.296
65.3069 0.255
65.3174 0.419
65.3279 0.214
65.3385 0.204
65.3490 0.255
65.3595 0.306
65.3700 0.266
65.3806 0.296
65.3911 0.204
65.4016 0.317
65.4121 0.368
65.4227 0.286
65.4332 0.255
65.4437 0.306
65.4542 0.296
65.4647 0.398
65.4753 0.235
65.4858 0.306
65.4963 0.276
65.5068 0.286
65.5174 0.357
65.5279 0.368
65.5384 0.347
65.5489 0.378
65.5594 0.296
65.5700 0.306
65.5805 0.306
65.5910 0.276
65.6015 0.286
65.6121 0.306
65.6226 0.368
65.6331 0.245
65.6436 0.255
65.6542 0.245
65.6647 0.266
65.6752 0.347
65.6857 0.255
65.6962 0.368
65.7068 0.306
65.7173 0.163
65.7278 0.225
65.7383 0.286
65.7489 0.296
65.7594 0.276
65.7699 0.408
65.7804 0.378
65.7909 0.368
65.8015 0.408
65.8120 0.398
65.8225 0.419
65.8330 0.235
65.8436 0.490
65.8541 0.419
65.8646 0.449
65.8751 0.388
65.8856 0.378
65.8962 0.398
65.9067 0.306
65.9172 0.419
65.9277 0.460
65.9383 0.511
65.9488 0.449
65.9593 0.470
65.9698 0.480
65.9804 0.490
65.9909 0.490
66.0014 0.582
66.0119 0.490
66.0224 0.551
66.0330 0.603
66.0435 0.735
66.0540 0.511
66.0645 0.551
66.0751 0.643
66.0856 0.551
66.0961 0.551
66.1066 0.500
66.1171 0.643
66.1277 0.582
66.1382 0.541
66.1487 0.500
66.1592 0.582
66.1698 0.603
66.1803 0.521
66.1908 0.633
66.2013 0.562
66.2119 0.531
66.2224 0.674
66.2329 0.705
66.2434 0.684
66.2539 0.562
66.2645 0.531
66.2750 0.654
66.2855 0.929
66.2960 0.766
66.3066 0.756
66.3171 0.756
66.3276 0.950
66.3381 0.878
66.3486 0.868
66.3592 0.919
66.3697 0.827
66.3802 1.083
66.3907 0.848
66.4013 1.103
66.4118 0.929
66.4223 0.919
66.4328 0.980
66.4433 1.215
66.4539 1.042
66.4644 1.021
66.4749 0.909
66.4854 1.021
66.4960 0.837
66.5065 0.797
66.5170 0.674
66.5275 0.694
66.5381 0.848
66.5486 0.827
66.5591 0.725
66.5696 0.633
66.5801 0.531
66.5907 0.582
66.6012 0.694
66.6117 0.623
66.6222 0.490
66.6328 0.633
66.6433 0.368
66.6538 0.419
66.6643 0.408
66.6748 0.500
66.6854 0.439
66.6959 0.460
66.7064 0.378
66.7169 0.347
66.7275 0.449
66.7380 0.347
66.7485 0.368
66.7590 0.408
66.7695 0.286
66.7801 0.235
66.7906 0.317
66.8011 0.368
66.8116 0.245
66.8222 0.317
66.8327 0.286
66.8432 0.296
66.8537 0.286
66.8643 0.266
66.8748 0.306
66.8853 0.327
66.8958 0.276
66.9063 0.296
66.9169 0.276
66.9274 0.368
66.9379 0.306
66.9484 0.306
66.9590 0.306
66.9695 0.296
66.9800 0.296
66.9905 0.163
67.0010 0.225
67.0116 0.276
67.0221 0.378
67.0326 0.266
67.0431 0.204
67.0537 0.286
67.0642 0.296
67.0747 0.388
67.0852 0.368
67.0958 0.306
67.1063 0.235
67.1168 0.439
67.1273 0.368
67.1378 0.480
67.1484 0.378
67.1589 0.398
67.1694 0.327
67.1799 0.357
67.1905 0.572
67.2010 0.408
67.2115 0.337
67.2220 0.429
67.2325 0.511
67.2431 0.317
67.2536 0.408
67.2641 0.398
67.2746 0.408
67.2852 0.460
67.2957 0.480
67.3062 0.582
67.3167 0.500
67.3272 0.541
67.3378 0.531
67.3483 0.521
67.3588 0.592
67.3693 0.490
67.3799 0.715
67.3904 0.735
67.4009 0.797
67.4114 0.919
67.4220 0.786
67.4325 0.878
67.4430 0.868
67.4535 0.817
67.4640 0.807
67.4746 0.725
67.4851 0.776
67.4956 0.899
67.5061 0.888
67.5167 0.674
67.5272 0.807
67.5377 0.878
67.5482 0.807
67.5587 0.705
67.5693 0.746
67.5798 0.766
67.5903 0.684
67.6008 0.592
67.6114 0.888
67.6219 0.705
67.6324 0.613
67.6429 0.582
67.6534 0.562
67.6640 0.674
67.6745 0.633
67.6850 0.439
67.6955 0.378
67.7061 0.460
67.7166 0.490
67.7271 0.490
67.7376 0.429
67.7482 0.419
67.7587 0.439
67.7692 0.306
67.7797 0.429
67.7902 0.449
67.8008 0.368
67.8113 0.429
67.8218 0.327
67.8323 0.337
67.8429 0.276
67.8534 0.388
67.8639 0.368
67.8744 0.266
67.8849 0.357
67.8955 0.337
67.9060 0.306
67.9165 0.327
67.9270 0.276
67.9376 0.276
67.9481 0.306
67.9586 0.398
67.9691 0.245
67.9797 0.337
67.9902 0.255
68.0007 0.449
68.0112 0.245
68.0217 0.306
68.0323 0.276
68.0428 0.357
68.0533 0.317
68.0638 0.337
68.0744 0.347
68.0849 0.306
68.0954 0.470
68.1059 0.337
68.1164 0.388
68.1270 0.357
68.1375 0.347
68.1480 0.439
68.1585 0.419
68.1691 0.368
68.1796 0.368
68.1901 0.317
68.2006 0.398
68.2111 0.460
68.2217 0.531
68.2322 0.255
68.2427 0.419
68.2532 0.429
68.2638 0.480
68.2743 0.286
68.2848 0.347
68.2953 0.337
68.3059 0.327
68.3164 0.408
68.3269 0.480
68.3374 0.296
68.3479 0.398
68.3585 0.378
68.3690 0.419
68.3795 0.357
68.3900 0.408
68.4006 0.357
68.4111 0.347
68.4216 0.541
68.4321 0.368
68.4426 0.347
68.4532 0.337
68.4637 0.347
68.4742 0.480
68.4847 0.368
68.4953 0.439
68.5058 0.214
68.5163 0.388
68.5268 0.296
68.5373 0.296
68.5479 0.214
68.5584 0.286
68.5689 0.398
68.5794 0.266
68.5900 0.347
68.6005 0.327
68.6110 0.317
68.6215 0.194
68.6321 0.245
68.6426 0.337
68.6531 0.225
68.6636 0.225
68.6741 0.266
68.6847 0.296
68.6952 0.337
68.7057 0.255
68.7162 0.306
68.7268 0.266
68.7373 0.286
68.7478 0.337
68.7583 0.245
68.7688 0.276
68.7794 0.194
68.7899 0.204
68.8004 0.204
68.8109 0.204
68.8215 0.194
68.8320 0.296
68.8425 0.296
68.8530 0.214
68.8636 0.296
68.8741 0.255
68.8846 0.184
68.8951 0.214
68.9056 0.245
68.9162 0.153
68.9267 0.235
68.9372 0.235
68.9477 0.225
68.9583 0.214
68.9688 0.204
68.9793 0.194
68.9898 0.296
69.0003 0.245
69.0109 0.184
69.0214 0.255
69.0319 0.184
69.0424 0.235
69.0530 0.153
69.0635 0.163
69.0740 0.306
69.0845 0.245
69.0950 0.266
69.1056 0.266
69.1161 0.255
69.1266 0.194
69.1371 0.276
69.1477 0.235
69.1582 0.235
69.1687 0.255
69.1792 0.296
69.1898 0.255
69.2003 0.306
69.2108 0.296
69.2213 0.235
69.2318 0.286
69.2424 0.306
69.2529 0.317
69.2634 0.225
69.2739 0.388
69.2845 0.276
69.2950 0.276
69.3055 0.449
69.3160 0.306
69.3265 0.296
69.3371 0.337
69.3476 0.347
69.3581 0.337
69.3686 0.480
69.3792 0.286
69.3897 0.439
69.4002 0.613
69.4107 0.480
69.4212 0.398
69.4318 0.480
69.4423 0.582
69.4528 0.551
69.4633 0.551
69.4739 0.531
69.4844 0.490
69.4949 0.562
69.5054 0.531
69.5160 0.531
69.5265 0.603
69.5370 0.664
69.5475 0.592
69.5580 0.572
69.5686 0.470
69.5791 0.337
69.5896 0.419
69.6001 0.398
69.6107 0.429
69.6212 0.378
69.6317 0.368
69.6422 0.460
69.6527 0.429
69.6633 0.398
69.6738 0.266
69.6843 0.490
69.6948 0.460
69.7054 0.317
69.7159 0.357
69.7264 0.388
69.7369 0.357
69.7475 0.408
69.7580 0.286
69.7685 0.357
69.7790 0.419
69.7895 0.470
69.8001 0.368
69.8106 0.378
69.8211 0.480
69.8316 0.460
69.8422 0.408
69.8527 0.511
69.8632 0.419
69.8737 0.398
69.8842 0.490
69.8948 0.490
69.9053 0.337
69.9158 0.613
69.9263 0.511
69.9369 0.511
69.9474 0.480
69.9579 0.500
69.9684 0.674
69.9789 0.521
69.9895 0.643
70.0000 0.725
70.0105 0.633
70.0210 0.878
70.0316 0.654
70.0421 0.776
70.0526 0.797
70.0631 0.694
70.0737 0.980
70.0842 1.062
70.0947 0.940
70.1052 1.154
70.1157 1.011
70.1263 1.174
70.1368 1.379
70.1473 1.328
70.1578 1.174
70.1684 1.287
70.1789 1.399
70.1894 1.205
70.1999 1.236
70.2104 1.164
70.2210 1.256
70.2315 1.501
70.2420 1.317
70.2525 0.940
70.2631 1.297
70.2736 1.174
70.2841 1.072
70.2946 1.215
70.3052 1.113
70.3157 1.134
70.3262 0.827
70.3367 0.960
70.3472 0.868
70.3578 0.929
70.3683 0.848
70.3788 1.021
70.3893 0.786
70.3999 0.623
70.4104 0.756
70.4209 0.633
70.4314 0.674
70.4419 0.541
70.4525 0.551
70.4630 0.460
70.4735 0.500
70.4840 0.643
70.4946 0.551
70.5051 0.388
70.5156 0.490
70.5261 0.470
70.5366 0.603
70.5472 0.511
70.5577 0.368
70.5682 0.460
70.5787 0.357
70.5893 0.408
70.5998 0.286
70.6103 0.429
70.6208 0.378
70.6314 0.266
70.6419 0.408
70.6524 0.368
70.6629 0.306
70.6734 0.337
70.6840 0.296
70.6945 0.347
70.7050 0.317
70.7155 0.306
70.7261 0.255
70.7366 0.225
70.7471 0.235
70.7576 0.184
70.7681 0.347
70.7787 0.296
70.7892 0.245
70.7997 0.225
70.8102 0.296
70.8208 0.357
70.8313 0.153
70.8418 0.143
70.8523 0.327
70.8628 0.245
70.8734 0.245
70.8839 0.276
70.8944 0.184
70.9049 0.266
70.9155 0.235
70.9260 0.306
70.9365 0.266
70.9470 0.245
70.9576 0.174
70.9681 0.153
70.9786 0.327
70.9891 0.296
70.9996 0.184
71.0102 0.296
71.0207 0.327
71.0312 0.306
71.0417 0.235
71.0523 0.368
71.0628 0.163
71.0733 0.296
71.0838 0.184
71.0943 0.214
71.1049 0.306
71.1154 0.327
71.1259 0.276
71.1364 0.225
71.1470 0.255
71.1575 0.347
71.1680 0.245
71.1785 0.327
71.1891 0.235
71.1996 0.184
71.2101 0.296
71.2206 0.245
71.2311 0.317
71.2417 0.286
71.2522 0.368
71.2627 0.337
71.2732 0.214
71.2838 0.429
71.2943 0.439
71.3048 0.337
71.3153 0.398
71.3258 0.378
71.3364 0.521
71.3469 0.429
71.3574 0.378
71.3679 0.419
71.3785 0.317
71.3890 0.439
71.3995 0.357
71.4100 0.572
71.4205 0.603
71.4311 0.490
71.4416 0.398
71.4521 0.408
71.4626 0.470
71.4732 0.398
71.4837 0.480
71.4942 0.633
71.5047 0.500
71.5153 0.623
71.5258 0.551
71.5363 0.449
71.5468 0.388
71.5573 0.490
71.5679 0.582
71.5784 0.531
71.5889 0.562
71.5994 0.531
71.6100 0.531
71.6205 0.408
71.6310 0.357
71.6415 0.531
71.6520 0.368
71.6626 0.572
71.6731 0.398
71.6836 0.521
71.6941 0.490
71.7047 0.551
71.7152 0.480
71.7257 0.500
71.7362 0.490
71.7467 0.347
71.7573 0.439
71.7678 0.531
71.7783 0.500
71.7888 0.470
71.7994 0.449
71.8099 0.500
71.8204 0.398
71.8309 0.408
71.8415 0.551
71.8520 0.541
71.8625 0.439
71.8730 0.480
71.8835 0.419
71.8941 0.613
71.9046 0.470
71.9151 0.562
71.9256 0.623
71.9362 0.541
71.9467 0.684
71.9572 0.541
71.9677 0.603
71.9782 0.572
71.9888 0.419
71.9993 0.664
72.0098 0.603
72.0203 0.643
72.0309 0.633
72.0414 0.582
72.0519 0.572
72.0624 0.654
72.0730 0.654
72.0835 0.756
72.0940 0.562
72.1045 0.664
72.1150 0.643
72.1256 0.705
72.1361 0.827
72.1466 0.868
72.1571 0.858
72.1677 0.735
72.1782 0.725
72.1887 1.052
72.1992 0.786
72.2097 0.827
72.2203 1.083
72.2308 0.950
72.2413 0.878
72.2518 0.899
72.2624 0.919
72.2729 0.888
72.2834 1.113
72.2939 1.062
72.3044 1.083
72.3150 0.960
72.3255 1.185
72.3360 0.960
72.3465 1.205
72.3571 1.134
72.3676 1.287
72.3781 1.236
72.3886 1.185
72.3992 1.031
72.4097 1.062
72.4202 1.256
72.4307 1.011
72.4412 1.083
72.4518 1.123
72.4623 1.123
72.4728 1.042
72.4833 1.072
72.4939 1.093
72.5044 1.134
72.5149 1.062
72.5254 0.970
72.5359 0.817
72.5465 1.001
72.5570 0.899
72.5675 0.715
72.5780 0.878
72.5886 0.735
72.5991 0.827
72.6096 0.797
72.6201 0.511
72.6306 0.766
72.6412 0.613
72.6517 0.511
72.6622 0.592
72.6727 0.643
72.6833 0.500
72.6938 0.511
72.7043 0.531
72.7148 0.521
72.7254 0.388
72.7359 0.306
72.7464 0.500
72.7569 0.511
72.7674 0.541
72.7780 0.408
72.7885 0.470
72.7990 0.541
72.8095 0.378
72.8201 0.347
72.8306 0.266
72.8411 0.368
72.8516 0.490
72.8621 0.398
72.8727 0.327
72.8832 0.357
72.8937 0.276
72.9042 0.306
72.9148 0.317
72.9253 0.398
72.9358 0.337
72.9463 0.327
72.9569 0.388
72.9674 0.286
72.9779 0.337
72.9884 0.266
72.9989 0.317
73.0095 0.541
73.0200 0.347
73.0305 0.337
73.0410 0.174
73.0516 0.327
73.0621 0.296
73.0726 0.347
73.0831 0.235
73.0936 0.286
73.1042 0.245
73.1147 0.296
73.1252 0.235
73.1357 0.204
73.1463 0.204
73.1568 0.255
73.1673 0.286
73.1778 0.306
73.1883 0.204
73.1989 0.225
73.2094 0.174
73.2199 0.306
73.2304 0.306
73.2410 0.255
73.2515 0.286
73.2620 0.276
73.2725 0.214
73.2831 0.255
73.2936 0.306
73.3041 0.245
73.3146 0.388
73.3251 0.225
73.3357 0.153
73.3462 0.214
73.3567 0.378
73.3672 0.347
73.3778 0.398
73.3883 0.317
73.3988 0.317
73.4093 0.327
73.4198 0.429
73.4304 0.480
73.4409 0.378
73.4514 0.378
73.4619 0.419
73.4725 0.378
73.4830 0.460
73.4935 0.398
73.5040 0.449
73.5146 0.398
73.5251 0.296
73.5356 0.460
73.5461 0.572
73.5566 0.582
73.5672 0.419
73.5777 0.500
73.5882 0.572
73.5987 0.531
73.6093 0.449
73.6198 0.317
73.6303 0.470
73.6408 0.449
73.6513 0.408
73.6619 0.419
73.6724 0.531
73.6829 0.408
73.6934 0.317
73.7040 0.357
73.7145 0.286
73.7250 0.327
73.7355 0.398
73.7460 0.419
73.7566 0.327
73.7671 0.357
73.7776 0.368
73.7881 0.327
73.7987 0.276
73.8092 0.245
73.8197 0.214
73.8302 0.245
73.8408 0.245
73.8513 0.235
73.8618 0.266
73.8723 0.296
73.8828 0.286
73.8934 0.368
73.9039 0.245
73.9144 0.327
73.9249 0.214
73.9355 0.245
73.9460 0.276
73.9565 0.378
73.9670 0.235
73.9775 0.225
73.9881 0.266
73.9986 0.255
74.0091 0.327
74.0196 0.327
74.0302 0.296
74.0407 0.347
74.0512 0.327
74.0617 0.306
74.0722 0.347
74.0828 0.327
74.0933 0.266
74.1038 0.204
74.1143 0.327
74.1249 0.357
74.1354 0.255
74.1459 0.317
74.1564 0.408
74.1670 0.357
74.1775 0.388
74.1880 0.378
74.1985 0.368
74.2090 0.357
74.2196 0.449
74.2301 0.419
74.2406 0.511
74.2511 0.429
74.2617 0.521
74.2722 0.541
74.2827 0.603
74.2932 0.521
74.3037 0.746
74.3143 0.603
74.3248 0.664
74.3353 0.705
74.3458 0.694
74.3564 0.521
74.3669 0.643
74.3774 0.705
74.3879 0.858
74.3985 0.807
74.4090 0.827
74.4195 0.694
74.4300 0.786
74.4405 1.052
74.4511 0.940
74.4616 0.786
74.4721 0.970
74.4826 0.899
74.4932 0.888
74.5037 0.950
74.5142 0.878
74.5247 0.888
74.5352 0.868
74.5458 0.960
74.5563 0.776
74.5668 0.991
74.5773 0.858
74.5879 0.837
74.5984 0.756
74.6089 0.694
74.6194 0.572
74.6299 0.674
74.6405 0.521
74.6510 0.654
74.6615 0.511
74.6720 0.429
74.6826 0.429
74.6931 0.531
74.7036 0.490
74.7141 0.327
74.7247 0.490
74.7352 0.429
74.7457 0.357
74.7562 0.449
74.7667 0.347
74.7773 0.347
74.7878 0.419
74.7983 0.480
74.8088 0.419
74.8194 0.429
74.8299 0.368
74.8404 0.429
74.8509 0.439
74.8614 0.286
74.8720 0.337
74.8825 0.296
74.8930 0.225
74.9035 0.470
74.9141 0.378
74.9246 0.286
74.9351 0.276
74.9456 0.337
74.9561 0.286
74.9667 0.419
74.9772 0.368
74.9877 0.439
74.9982 0.214
75.0088 0.368
75.0193 0.347
75.0298 0.286
75.0403 0.317
75.0509 0.439
75.0614 0.296
75.0719 0.306
75.0824 0.357
75.0929 0.378
75.1035 0.378
75.1140 0.276
75.1245 0.296
75.1350 0.276
75.1456 0.255
75.1561 0.235
75.1666 0.317
75.1771 0.408
75.1876 0.388
75.1982 0.317
75.2087 0.378
75.2192 0.378
75.2297 0.388
75.2403 0.245
75.2508 0.286
75.2613 0.439
75.2718 0.562
75.2824 0.327
75.2929 0.286
75.3034 0.266
75.3139 0.357
75.3244 0.419
75.3350 0.327
75.3455 0.276
75.3560 0.378
75.3665 0.429
75.3771 0.347
75.3876 0.296
75.3981 0.347
75.4086 0.327
75.4191 0.306
75.4297 0.204
75.4402 0.337
75.4507 0.419
75.4612 0.276
75.4718 0.357
75.4823 0.296
75.4928 0.368
75.5033 0.327
75.5138 0.276
75.5244 0.286
75.5349 0.317
75.5454 0.286
75.5559 0.378
75.5665 0.184
75.5770 0.337
75.5875 0.317
75.5980 0.296
75.6086 0.378
75.6191 0.317
75.6296 0.368
75.6401 0.327
75.6506 0.419
75.6612 0.388
75.6717 0.419
75.6822 0.327
75.6927 0.378
75.7033 0.296
75.7138 0.286
75.7243 0.357
75.7348 0.439
75.7453 0.439
75.7559 0.317
75.7664 0.388
75.7769 0.398
75.7874 0.388
75.7980 0.337
75.8085 0.470
75.8190 0.368
75.8295 0.419
75.8400 0.419
75.8506 0.460
75.8611 0.317
75.8716 0.337
75.8821 0.286
75.8927 0.449
75.9032 0.357
75.9137 0.357
75.9242 0.429
75.9348 0.347
75.9453 0.327
75.9558 0.470
75.9663 0.347
75.9768 0.378
75.9874 0.214
75.9979 0.368
76.0084 0.286
76.0189 0.347
76.0295 0.255
76.0400 0.337
76.0505 0.357
76.0610 0.378
76.0715 0.368
76.0821 0.368
76.0926 0.327
76.1031 0.327
76.1136 0.266
76.1242 0.317
76.1347 0.327
76.1452 0.296
76.1557 0.398
76.1663 0.337
76.1768 0.255
76.1873 0.460
76.1978 0.357
76.2083 0.327
76.2189 0.235
76.2294 0.357
76.2399 0.470
76.2504 0.368
76.2610 0.337
76.2715 0.286
76.2820 0.357
76.2925 0.276
76.3030 0.317
76.3136 0.347
76.3241 0.337
76.3346 0.266
76.3451 0.306
76.3557 0.266
76.3662 0.368
76.3767 0.378
76.3872 0.327
76.3977 0.214
76.4083 0.276
76.4188 0.255
76.4293 0.255
76.4398 0.153
76.4504 0.255
76.4609 0.194
76.4714 0.204
76.4819 0.214
76.4925 0.214
76.5030 0.204
76.5135 0.163
76.5240 0.194
76.5345 0.266
76.5451 0.194
76.5556 0.163
76.5661 0.163
76.5766 0.153
76.5872 0.214
76.5977 0.194
76.6082 0.214
76.6187 0.245
76.6292 0.174
76.6398 0.184
76.6503 0.174
76.6608 0.184
76.6713 0.286
76.6819 0.225
76.6924 0.163
76.7029 0.184
76.7134 0.184
76.7240 0.204
76.7345 0.245
76.7450 0.112
76.7555 0.204
76.7660 0.235
76.7766 0.204
76.7871 0.225
76.7976 0.184
76.8081 0.194
76.8187 0.214
76.8292 0.133
76.8397 0.133
76.8502 0.235
76.8607 0.143
76.8713 0.153
76.8818 0.163
76.8923 0.214
76.9028 0.214
76.9134 0.123
76.9239 0.133
76.9344 0.092
76.9449 0.184
76.9554 0.153
76.9660 0.204
76.9765 0.194
76.9870 0.245
76.9975 0.204
77.0081 0.235
77.0186 0.082
77.0291 0.143
77.0396 0.123
77.0502 0.163
77.0607 0.184
77.0712 0.245
77.0817 0.225
77.0922 0.092
77.1028 0.143
77.1133 0.225
77.1238 0.133
77.1343 0.163
77.1449 0.225
77.1554 0.266
77.1659 0.255
77.1764 0.255
77.1869 0.276
77.1975 0.235
77.2080 0.245
77.2185 0.306
77.2290 0.174
77.2396 0.276
77.2501 0.174
77.2606 0.174
77.2711 0.225
77.2816 0.225
77.2922 0.194
77.3027 0.296
77.3132 0.276
77.3237 0.214
77.3343 0.317
77.3448 0.337
77.3553 0.337
77.3658 0.286
77.3764 0.255
77.3869 0.266
77.3974 0.255
77.4079 0.194
77.4184 0.368
77.4290 0.306
77.4395 0.276
77.4500 0.184
77.4605 0.276
77.4711 0.276
77.4816 0.378
77.4921 0.500
77.5026 0.306
77.5131 0.245
77.5237 0.235
77.5342 0.357
77.5447 0.388
77.5552 0.317
77.5658 0.408
77.5763 0.419
77.5868 0.286
77.5973 0.388
77.6079 0.317
77.6184 0.296
77.6289 0.419
77.6394 0.357
77.6499 0.449
77.6605 0.500
77.6710 0.551
77.6815 0.470
77.6920 0.500
77.7026 0.429
77.7131 0.500
77.7236 0.511
77.7341 0.572
77.7446 0.562
77.7552 0.531
77.7657 0.592
77.7762 0.521
77.7867 0.480
77.7973 0.643
77.8078 0.531
77.8183 0.582
77.8288 0.551
77.8393 0.603
77.8499 0.582
77.8604 0.613
77.8709 0.694
77.8814 0.603
77.8920 0.551
77.9025 0.643
77.9130 0.684
77.9235 0.684
77.9341 0.725
77.9446 0.827
77.9551 0.705
77.9656 0.817
77.9761 0.899
77.9867 0.623
77.9972 0.603
78.0077 0.694
78.0182 0.643
78.0288 0.643
78.0393 0.531
78.0498 0.633
78.0603 0.592
78.0708 0.643
78.0814 0.603
78.0919 0.684
78.1024 0.613
78.1129 0.623
78.1235 0.705
78.1340 0.572
78.1445 0.551
78.1550 0.541
78.1655 0.408
78.1761 0.419
78.1866 0.378
78.1971 0.378
78.2076 0.357
78.2182 0.480
78.2287 0.500
78.2392 0.327
78.2497 0.429
78.2603 0.449
78.2708 0.347
78.2813 0.531
78.2918 0.337
78.3023 0.449
78.3129 0.347
78.3234 0.337
78.3339 0.317
78.3444 0.398
78.3550 0.398
78.3655 0.347
78.3760 0.276
78.3865 0.317
78.3970 0.286
78.4076 0.327
78.4181 0.347
78.4286 0.296
78.4391 0.296
78.4497 0.235
78.4602 0.245
78.4707 0.204
78.4812 0.245
78.4918 0.306
78.5023 0.286
78.5128 0.296
78.5233 0.286
78.5338 0.255
78.5444 0.306
78.5549 0.174
78.5654 0.225
78.5759 0.194
78.5865 0.153
78.5970 0.235
78.6075 0.184
78.6180 0.235
78.6285 0.163
78.6391 0.235
78.6496 0.255
78.6601 0.214
78.6706 0.245
78.6812 0.174
78.6917 0.184
78.7022 0.194
78.7127 0.266
78.7232 0.214
78.7338 0.225
78.7443 0.123
78.7548 0.184
78.7653 0.153
78.7759 0.163
78.7864 0.184
78.7969 0.133
78.8074 0.235
78.8180 0.204
78.8285 0.143
78.8390 0.174
78.8495 0.163
78.8600 0.102
78.8706 0.092
78.8811 0.133
78.8916 0.184
78.9021 0.153
78.9127 0.214
78.9232 0.163
78.9337 0.143
78.9442 0.204
78.9547 0.194
78.9653 0.174
78.9758 0.194
78.9863 0.194
78.9968 0.163
79.0074 0.133
79.0179 0.194
79.0284 0.092
79.0389 0.163
79.0494 0.102
79.0600 0.214
79.0705 0.133
79.0810 0.153
79.0915 0.163
79.1021 0.153
79.1126 0.174
79.1231 0.194
79.1336 0.194
79.1442 0.143
79.1547 0.225
79.1652 0.204
79.1757 0.102
79.1862 0.163
79.1968 0.143
79.2073 0.163
79.2178 0.092
79.2283 0.133
79.2389 0.163
79.2494 0.153
79.2599 0.194
79.2704 0.174
79.2809 0.102
79.2915 0.153
79.3020 0.092
79.3125 0.235
79.3230 0.133
79.3336 0.184
79.3441 0.184
79.3546 0.204
79.3651 0.184
79.3757 0.184
79.3862 0.133
79.3967 0.153
79.4072 0.163
79.4177 0.143
79.4283 0.174
79.4388 0.102
79.4493 0.123
79.4598 0.174
79.4704 0.143
79.4809 0.184
79.4914 0.163
79.5019 0.245
79.5124 0.112
79.5230 0.082
79.5335 0.092
79.5440 0.133
79.5545 0.133
79.5651 0.204
79.5756 0.184
79.5861 0.133
79.5966 0.184
79.6071 0.163
79.6177 0.153
79.6282 0.184
79.6387 0.194
79.6492 0.214
79.6598 0.123
79.6703 0.153
79.6808 0.133
79.6913 0.153
79.7019 0.133
79.7124 0.184
79.7229 0.153
79.7334 0.204
79.7439 0.153
79.7545 0.194
79.7650 0.184
79.7755 0.194
79.7860 0.143
79.7966 0.112
79.8071 0.245
79.8176 0.184
79.8281 0.163
79.8386 0.153
79.8492 0.143
79.8597 0.184
79.8702 0.153
79.8807 0.174
79.8913 0.306
79.9018 0.184
79.9123 0.245
79.9228 0.255
79.9333 0.214
79.9439 0.214
79.9544 0.235
79.9649 0.214
79.9754 0.133
79.9860 0.225
79.9965 0.153
80.0070 0.245
