10.0000 1.001
10.0105 0.970
10.0210 0.868
10.0316 0.899
10.0421 1.011
10.0526 1.174
10.0631 1.174
10.0737 0.909
10.0842 0.858
10.0947 1.021
10.1052 1.062
10.1157 1.001
10.1263 1.113
10.1368 1.042
10.1473 0.919
10.1578 1.062
10.1684 1.052
10.1789 0.848
10.1894 1.011
10.1999 0.909
10.2105 0.960
10.2210 1.011
10.2315 1.174
10.2420 0.970
10.2525 1.277
10.2631 0.888
10.2736 0.970
10.2841 0.950
10.2946 1.072
10.3052 1.052
10.3157 1.062
10.3262 0.991
10.3367 1.052
10.3472 1.195
10.3578 0.848
10.3683 1.021
10.3788 0.807
10.3893 0.868
10.3999 0.960
10.4104 0.980
10.4209 0.837
10.4314 0.991
10.4420 0.960
10.4525 1.011
10.4630 0.980
10.4735 1.011
10.4840 0.888
10.4946 0.899
10.5051 1.001
10.5156 0.919
10.5261 1.093
10.5367 0.888
10.5472 0.991
10.5577 0.980
10.5682 0.868
10.5787 0.909
10.5893 0.991
10.5998 0.950
10.6103 0.919
10.6208 0.919
10.6314 1.042
10.6419 0.929
10.6524 1.083
10.6629 1.103
10.6734 0.674
10.6840 0.970
10.6945 0.888
10.7050 0.817
10.7155 0.817
10.7261 0.858
10.7366 0.827
10.7471 1.174
10.7576 0.766
10.7682 0.756
10.7787 0.940
10.7892 0.909
10.7997 0.950
10.8102 0.766
10.8208 0.950
10.8313 0.694
10.8418 0.837
10.8523 0.899
10.8629 0.919
10.8734 0.725
10.8839 0.909
10.8944 0.807
10.9049 1.031
10.9155 0.786
10.9260 0.919
10.9365 0.817
10.9470 0.980
10.9576 0.878
10.9681 0.817
10.9786 0.868
10.9891 0.940
10.9996 1.042
11.0102 0.929
11.0207 0.786
11.0312 0.837
11.0417 0.878
11.0523 0.817
11.0628 0.807
11.0733 0.878
11.0838 0.858
11.0944 0.807
11.1049 0.899
11.1154 0.858
11.1259 1.103
11.1364 0.725
11.1470 0.725
11.1575 0.827
11.1680 0.950
11.1785 0.817
11.1891 0.746
11.1996 0.899
11.2101 0.970
11.2206 0.858
11.2311 0.654
11.2417 0.776
11.2522 0.848
11.2627 0.746
11.2732 0.919
11.2838 0.980
11.2943 0.837
11.3048 0.919
11.3153 0.827
11.3259 0.694
11.3364 0.766
11.3469 0.705
11.3574 0.786
11.3679 0.766
11.3785 0.858
11.3890 0.827
11.3995 0.756
11.4100 0.797
11.4206 1.021
11.4311 0.705
11.4416 0.725
11.4521 0.776
11.4626 0.735
11.4732 0.797
11.4837 0.797
11.4942 0.817
11.5047 0.848
11.5153 0.694
11.5258 0.837
11.5363 0.899
11.5468 0.807
11.5573 0.705
11.5679 0.715
11.5784 0.837
11.5889 0.756
11.5994 0.674
11.6100 0.807
11.6205 0.694
11.6310 0.756
11.6415 0.837
11.6521 0.929
11.6626 0.766
11.6731 0.756
11.6836 0.909
11.6941 0.837
11.7047 0.807
11.7152 0.694
11.7257 0.837
11.7362 0.827
11.7468 0.735
11.7573 0.694
11.7678 0.868
11.7783 0.746
11.7888 0.848
11.7994 0.694
11.8099 0.735
11.8204 0.746
11.8309 0.766
11.8415 0.654
11.8520 0.766
11.8625 0.756
11.8730 0.786
11.8835 0.868
11.8941 0.827
11.9046 0.654
11.9151 0.848
11.9256 0.797
11.9362 0.684
11.9467 0.950
11.9572 1.083
11.9677 0.735
11.9783 0.797
11.9888 0.858
11.9993 0.878
12.0098 0.848
12.0203 0.827
12.0309 0.735
12.0414 1.001
12.0519 0.848
12.0624 0.786
12.0730 0.664
12.0835 0.766
12.0940 0.664
12.1045 0.674
12.1150 0.858
12.1256 0.735
12.1361 0.694
12.1466 0.797
12.1571 0.674
12.1677 0.837
12.1782 0.756
12.1887 0.654
12.1992 0.756
12.2098 0.817
12.2203 0.848
12.2308 0.817
12.2413 0.807
12.2518 0.746
12.2624 0.817
12.2729 0.643
12.2834 0.827
12.2939 0.694
12.3045 0.623
12.3150 0.817
12.3255 0.705
12.3360 0.766
12.3465 0.674
12.3571 0.715
12.3676 0.746
12.3781 0.817
12.3886 0.766
12.3992 0.715
12.4097 0.684
12.4202 0.633
12.4307 0.899
12.4412 0.940
12.4518 0.725
12.4623 0.735
12.4728 1.001
12.4833 0.715
12.4939 0.756
12.5044 0.633
12.5149 0.807
12.5254 0.664
12.5360 0.623
12.5465 0.664
12.5570 0.654
12.5675 0.807
12.5780 0.807
12.5886 0.633
12.5991 0.715
12.6096 0.766
12.6201 0.603
12.6307 0.837
12.6412 0.654
12.6517 0.654
12.6622 0.756
12.6727 0.848
12.6833 0.705
12.6938 0.684
12.7043 0.715
12.7148 0.603
12.7254 0.572
12.7359 0.756
12.7464 0.786
12.7569 0.633
12.7674 0.786
12.7780 0.735
12.7885 0.807
12.7990 0.746
12.8095 0.827
12.8201 0.766
12.8306 0.674
12.8411 0.878
12.8516 0.797
12.8622 0.725
12.8727 0.715
12.8832 0.654
12.8937 0.674
12.9042 0.899
12.9148 0.674
12.9253 0.766
12.9358 0.746
12.9463 0.633
12.9569 0.715
12.9674 0.460
12.9779 0.541
12.9884 0.827
12.9989 0.541
13.0095 0.725
13.0200 0.715
13.0305 0.684
13.0410 0.643
13.0516 0.694
13.0621 0.756
13.0726 0.643
13.0831 0.592
13.0937 0.562
13.1042 0.756
13.1147 0.613
13.1252 0.878
13.1357 0.664
13.1463 0.776
13.1568 0.664
13.1673 0.746
13.1778 0.664
13.1884 0.582
13.1989 0.582
13.2094 0.674
13.2199 0.684
13.2304 0.541
13.2410 0.694
13.2515 0.735
13.2620 0.562
13.2725 0.664
13.2831 0.500
13.2936 0.654
13.3041 0.776
13.3146 0.797
13.3251 0.684
13.3357 0.705
13.3462 0.735
13.3567 0.633
13.3672 0.735
13.3778 0.746
13.3883 0.684
13.3988 0.694
13.4093 0.654
13.4199 0.613
13.4304 0.664
13.4409 0.603
13.4514 0.725
13.4619 0.715
13.4725 0.603
13.4830 0.541
13.4935 0.521
13.5040 0.837
13.5146 0.725
13.5251 0.684
13.5356 0.766
13.5461 0.694
13.5566 0.654
13.5672 0.694
13.5777 0.654
13.5882 0.797
13.5987 0.582
13.6093 0.592
13.6198 0.654
13.6303 0.603
13.6408 0.797
13.6514 0.705
13.6619 0.725
13.6724 0.746
13.6829 0.694
13.6934 0.643
13.7040 0.735
13.7145 0.551
13.7250 0.633
13.7355 0.613
13.7461 0.643
13.7566 0.746
13.7671 0.613
13.7776 0.766
13.7881 0.705
13.7987 0.807
13.8092 0.470
13.8197 0.674
13.8302 0.664
13.8408 0.643
13.8513 0.347
13.8618 0.603
13.8723 0.786
13.8828 0.654
13.8934 0.562
13.9039 0.705
13.9144 0.531
13.9249 0.674
13.9355 0.807
13.9460 0.633
13.9565 0.623
13.9670 0.715
13.9776 0.633
13.9881 0.531
13.9986 0.531
14.0091 0.562
14.0196 0.756
14.0302 0.694
14.0407 0.541
14.0512 0.572
14.0617 0.623
14.0723 0.756
14.0828 0.531
14.0933 0.490
14.1038 0.613
14.1143 0.715
14.1249 0.592
14.1354 0.541
14.1459 0.613
14.1564 0.684
14.1670 0.735
14.1775 0.674
14.1880 0.572
14.1985 0.582
14.2090 0.623
14.2196 0.654
14.2301 0.603
14.2406 0.603
14.2511 0.643
14.2617 0.664
14.2722 0.500
14.2827 0.776
14.2932 0.643
14.3038 0.654
14.3143 0.746
14.3248 0.511
14.3353 0.562
14.3458 0.694
14.3564 0.715
14.3669 0.664
14.3774 0.572
14.3879 0.725
14.3985 0.654
14.4090 0.582
14.4195 0.531
14.4300 0.643
14.4405 0.613
14.4511 0.654
14.4616 0.735
14.4721 0.613
14.4826 0.603
14.4932 0.582
14.5037 0.603
14.5142 0.613
14.5247 0.500
14.5353 0.521
14.5458 0.623
14.5563 0.582
14.5668 0.654
14.5773 0.613
14.5879 0.643
14.5984 0.613
14.6089 0.664
14.6194 0.684
14.6300 0.613
14.6405 0.633
14.6510 0.460
14.6615 0.521
14.6720 0.582
14.6826 0.388
14.6931 0.633
14.7036 0.664
14.7141 0.623
14.7247 0.572
14.7352 0.541
14.7457 0.582
14.7562 0.797
14.7667 0.551
14.7773 0.654
14.7878 0.582
14.7983 0.776
14.8088 0.705
14.8194 0.582
14.8299 0.664
14.8404 0.623
14.8509 0.633
14.8615 0.623
14.8720 0.746
14.8825 0.715
14.8930 0.408
14.9035 0.419
14.9141 0.613
14.9246 0.603
14.9351 0.572
14.9456 0.776
14.9562 0.694
14.9667 0.643
14.9772 0.633
14.9877 0.500
14.9982 0.460
15.0088 0.582
15.0193 0.511
15.0298 0.460
15.0403 0.613
15.0509 0.623
15.0614 0.480
15.0719 0.674
15.0824 0.511
15.0929 0.684
15.1035 0.603
15.1140 0.643
15.1245 0.521
15.1350 0.562
15.1456 0.592
15.1561 0.500
15.1666 0.623
15.1771 0.551
15.1877 0.470
15.1982 0.603
15.2087 0.531
15.2192 0.562
15.2297 0.470
15.2403 0.460
15.2508 0.490
15.2613 0.633
15.2718 0.674
15.2824 0.643
15.2929 0.725
15.3034 0.572
15.3139 0.613
15.3244 0.654
15.3350 0.694
15.3455 0.735
15.3560 0.551
15.3665 0.470
15.3771 0.480
15.3876 0.603
15.3981 0.572
15.4086 0.480
15.4192 0.562
15.4297 0.664
15.4402 0.551
15.4507 0.500
15.4612 0.439
15.4718 0.705
15.4823 0.623
15.4928 0.480
15.5033 0.500
15.5139 0.582
15.5244 0.378
15.5349 0.582
15.5454 0.715
15.5559 0.460
15.5665 0.551
15.5770 0.654
15.5875 0.817
15.5980 0.562
15.6086 0.511
15.6191 0.572
15.6296 0.490
15.6401 0.623
15.6506 0.480
15.6612 0.582
15.6717 0.572
15.6822 0.643
15.6927 0.470
15.7033 0.664
15.7138 0.500
15.7243 0.633
15.7348 0.551
15.7454 0.521
15.7559 0.603
15.7664 0.562
15.7769 0.429
15.7874 0.643
15.7980 0.511
15.8085 0.470
15.8190 0.603
15.8295 0.531
15.8401 0.521
15.8506 0.562
15.8611 0.551
15.8716 0.603
15.8821 0.592
15.8927 0.541
15.9032 0.541
15.9137 0.511
15.9242 0.541
15.9348 0.643
15.9453 0.572
15.9558 0.521
15.9663 0.511
15.9768 0.531
15.9874 0.531
15.9979 0.480
16.0084 0.613
16.0189 0.582
16.0295 0.541
16.0400 0.511
16.0505 0.490
16.0610 0.521
16.0716 0.572
16.0821 0.521
16.0926 0.562
16.1031 0.592
16.1136 0.694
16.1242 0.480
16.1347 0.582
16.1452 0.572
16.1557 0.572
16.1663 0.470
16.1768 0.470
16.1873 0.500
16.1978 0.500
16.2083 0.654
16.2189 0.633
16.2294 0.603
16.2399 0.541
16.2504 0.582
16.2610 0.419
16.2715 0.592
16.2820 0.490
16.2925 0.603
16.3031 0.521
16.3136 0.572
16.3241 0.460
16.3346 0.551
16.3451 0.592
16.3557 0.572
16.3662 0.582
16.3767 0.592
16.3872 0.705
16.3978 0.337
16.4083 0.613
16.4188 0.623
16.4293 0.490
16.4398 0.541
16.4504 0.460
16.4609 0.511
16.4714 0.460
16.4819 0.500
16.4925 0.551
16.5030 0.582
16.5135 0.674
16.5240 0.613
16.5345 0.572
16.5451 0.521
16.5556 0.460
16.5661 0.521
16.5766 0.582
16.5872 0.592
16.5977 0.470
16.6082 0.562
16.6187 0.551
16.6293 0.643
16.6398 0.460
16.6503 0.490
16.6608 0.654
16.6713 0.633
16.6819 0.582
16.6924 0.500
16.7029 0.582
16.7134 0.633
16.7240 0.623
16.7345 0.541
16.7450 0.511
16.7555 0.674
16.7660 0.684
16.7766 0.643
16.7871 0.541
16.7976 0.562
16.8081 0.643
16.8187 0.541
16.8292 0.674
16.8397 0.623
16.8502 0.613
16.8607 0.521
16.8713 0.633
16.8818 0.735
16.8923 0.592
16.9028 0.766
16.9134 0.725
16.9239 0.735
16.9344 0.746
16.9449 0.827
16.9555 0.950
16.9660 0.950
16.9765 1.164
16.9870 1.205
16.9975 1.256
17.0081 1.001
17.0186 1.614
17.0291 1.716
17.0396 1.930
17.0502 1.940
17.0607 2.808
17.0712 2.941
17.0817 3.646
17.0922 3.840
17.1028 4.647
17.1133 5.341
17.1238 6.199
17.1343 7.465
17.1449 7.823
17.1554 8.395
17.1659 9.007
17.1764 8.374
17.1870 8.007
17.1975 7.547
17.2080 6.454
17.2185 5.760
17.2290 5.055
17.2396 3.779
17.2501 3.217
17.2606 2.951
17.2711 2.512
17.2817 2.155
17.2922 1.838
17.3027 1.440
17.3132 1.287
17.3237 1.368
17.3343 1.205
17.3448 1.093
17.3553 0.899
17.3658 0.929
17.3764 0.899
17.3869 0.643
17.3974 0.817
17.4079 0.746
17.4184 0.582
17.4290 0.623
17.4395 0.694
17.4500 0.623
17.4605 0.541
17.4711 0.582
17.4816 0.572
17.4921 0.541
17.5026 0.562
17.5132 0.664
17.5237 0.603
17.5342 0.490
17.5447 0.664
17.5552 0.582
17.5658 0.633
17.5763 0.551
17.5868 0.643
17.5973 0.551
17.6079 0.531
17.6184 0.521
17.6289 0.613
17.6394 0.521
17.6499 0.439
17.6605 0.551
17.6710 0.449
17.6815 0.439
17.6920 0.531
17.7026 0.439
17.7131 0.408
17.7236 0.408
17.7341 0.500
17.7447 0.613
17.7552 0.582
17.7657 0.592
17.7762 0.357
17.7867 0.460
17.7973 0.521
17.8078 0.408
17.8183 0.623
17.8288 0.357
17.8394 0.490
17.8499 0.551
17.8604 0.460
17.8709 0.449
17.8814 0.419
17.8920 0.613
17.9025 0.449
17.9130 0.490
17.9235 0.470
17.9341 0.419
17.9446 0.664
17.9551 0.490
17.9656 0.429
17.9761 0.551
17.9867 0.419
17.9972 0.470
18.0077 0.511
18.0182 0.572
18.0288 0.388
18.0393 0.439
18.0498 0.613
18.0603 0.408
18.0709 0.429
18.0814 0.521
18.0919 0.429
18.1024 0.500
18.1129 0.521
18.1235 0.429
18.1340 0.347
18.1445 0.388
18.1550 0.572
18.1656 0.531
18.1761 0.490
18.1866 0.429
18.1971 0.521
18.2076 0.490
18.2182 0.500
18.2287 0.378
18.2392 0.439
18.2497 0.521
18.2603 0.500
18.2708 0.490
18.2813 0.460
18.2918 0.490
18.3023 0.419
18.3129 0.470
18.3234 0.429
18.3339 0.592
18.3444 0.572
18.3550 0.551
18.3655 0.531
18.3760 0.480
18.3865 0.603
18.3971 0.460
18.4076 0.398
18.4181 0.449
18.4286 0.439
18.4391 0.419
18.4497 0.511
18.4602 0.368
18.4707 0.572
18.4812 0.613
18.4918 0.490
18.5023 0.562
18.5128 0.419
18.5233 0.490
18.5338 0.470
18.5444 0.460
18.5549 0.592
18.5654 0.500
18.5759 0.378
18.5865 0.388
18.5970 0.419
18.6075 0.449
18.6180 0.470
18.6286 0.470
18.6391 0.500
18.6496 0.460
18.6601 0.460
18.6706 0.419
18.6812 0.449
18.6917 0.337
18.7022 0.643
18.7127 0.521
18.7233 0.368
18.7338 0.327
18.7443 0.541
18.7548 0.419
18.7653 0.317
18.7759 0.439
18.7864 0.439
18.7969 0.490
18.8074 0.449
18.8180 0.449
18.8285 0.378
18.8390 0.317
18.8495 0.347
18.8600 0.429
18.8706 0.368
18.8811 0.531
18.8916 0.419
18.9021 0.500
18.9127 0.480
18.9232 0.480
18.9337 0.490
18.9442 0.460
18.9548 0.500
18.9653 0.398
18.9758 0.460
18.9863 0.480
18.9968 0.368
19.0074 0.511
19.0179 0.337
19.0284 0.419
19.0389 0.439
19.0495 0.480
19.0600 0.470
19.0705 0.419
19.0810 0.521
19.0915 0.306
19.1021 0.643
19.1126 0.449
19.1231 0.521
19.1336 0.439
19.1442 0.337
19.1547 0.408
19.1652 0.449
19.1757 0.317
19.1862 0.429
19.1968 0.429
19.2073 0.429
19.2178 0.429
19.2283 0.480
19.2389 0.398
19.2494 0.327
19.2599 0.531
19.2704 0.582
19.2810 0.439
19.2915 0.511
19.3020 0.337
19.3125 0.337
19.3230 0.296
19.3336 0.398
19.3441 0.388
19.3546 0.449
19.3651 0.449
19.3757 0.429
19.3862 0.357
19.3967 0.511
19.4072 0.357
19.4177 0.521
19.4283 0.378
19.4388 0.511
19.4493 0.388
19.4598 0.347
19.4704 0.429
19.4809 0.582
19.4914 0.603
19.5019 0.337
19.5125 0.490
19.5230 0.388
19.5335 0.582
19.5440 0.551
19.5545 0.460
19.5651 0.531
19.5756 0.460
19.5861 0.470
19.5966 0.388
19.6072 0.480
19.6177 0.388
19.6282 0.449
19.6387 0.460
19.6492 0.378
19.6598 0.296
19.6703 0.429
19.6808 0.480
19.6913 0.408
19.7019 0.439
19.7124 0.470
19.7229 0.388
19.7334 0.439
19.7439 0.419
19.7545 0.347
19.7650 0.562
19.7755 0.408
19.7860 0.623
19.7966 0.480
19.8071 0.449
19.8176 0.306
19.8281 0.357
19.8387 0.480
19.8492 0.388
19.8597 0.480
19.8702 0.551
19.8807 0.419
19.8913 0.408
19.9018 0.388
19.9123 0.500
19.9228 0.408
19.9334 0.449
19.9439 0.439
19.9544 0.419
19.9649 0.541
19.9754 0.531
19.9860 0.327
19.9965 0.500
20.0070 0.408
20.0175 0.368
20.0281 0.419
20.0386 0.439
20.0491 0.460
20.0596 0.490
20.0701 0.408
20.0807 0.511
20.0912 0.337
20.1017 0.490
20.1122 0.378
20.1228 0.531
20.1333 0.378
20.1438 0.388
20.1543 0.460
20.1649 0.500
20.1754 0.419
20.1859 0.398
20.1964 0.439
20.2069 0.551
20.2175 0.521
20.2280 0.470
20.2385 0.531
20.2490 0.592
20.2596 0.490
20.2701 0.684
20.2806 0.613
20.2911 0.439
20.3016 0.541
20.3122 0.541
20.3227 0.490
20.3332 0.449
20.3437 0.511
20.3543 0.531
20.3648 0.541
20.3753 0.592
20.3858 0.449
20.3964 0.521
20.4069 0.684
20.4174 0.470
20.4279 0.592
20.4384 0.582
20.4490 0.664
20.4595 0.684
20.4700 0.633
20.4805 0.694
20.4911 0.684
20.5016 0.684
20.5121 0.837
20.5226 0.776
20.5331 0.766
20.5437 0.940
20.5542 0.878
20.5647 1.011
20.5752 1.123
20.5858 1.123
20.5963 1.368
20.6068 1.736
20.6173 1.797
20.6278 2.042
20.6384 2.533
20.6489 3.074
20.6594 3.809
20.6699 4.197
20.6805 5.423
20.6910 6.015
20.7015 7.384
20.7120 8.650
20.7226 10.151
20.7331 11.754
20.7436 13.164
20.7541 14.185
20.7646 14.747
20.7752 15.656
20.7857 14.461
20.7962 13.674
20.8067 12.163
20.8173 10.897
20.8278 9.457
20.8383 7.874
20.8488 5.974
20.8593 5.566
20.8699 4.585
20.8804 3.738
20.8909 3.299
20.9014 2.420
20.9120 2.185
20.9225 2.277
20.9330 1.644
20.9435 1.409
20.9541 1.174
20.9646 1.317
20.9751 1.379
20.9856 1.450
20.9961 0.970
21.0067 1.001
21.0172 0.888
21.0277 1.072
21.0382 0.929
21.0488 0.684
21.0593 0.705
21.0698 0.654
21.0803 0.694
21.0908 0.756
21.1014 0.592
21.1119 0.551
21.1224 0.603
21.1329 0.521
21.1435 0.500
21.1540 0.582
21.1645 0.654
21.1750 0.613
21.1855 0.511
21.1961 0.449
21.2066 0.551
21.2171 0.460
21.2276 0.643
21.2382 0.378
21.2487 0.500
21.2592 0.419
21.2697 0.541
21.2803 0.460
21.2908 0.439
21.3013 0.449
21.3118 0.460
21.3223 0.357
21.3329 0.551
21.3434 0.449
21.3539 0.429
21.3644 0.408
21.3750 0.388
21.3855 0.429
21.3960 0.378
21.4065 0.480
21.4170 0.511
21.4276 0.439
21.4381 0.643
21.4486 0.408
21.4591 0.419
21.4697 0.357
21.4802 0.368
21.4907 0.429
21.5012 0.470
21.5117 0.439
21.5223 0.419
21.5328 0.500
21.5433 0.480
21.5538 0.470
21.5644 0.480
21.5749 0.398
21.5854 0.429
21.5959 0.347
21.6065 0.317
21.6170 0.511
21.6275 0.439
21.6380 0.398
21.6485 0.521
21.6591 0.408
21.6696 0.276
21.6801 0.347
21.6906 0.439
21.7012 0.480
21.7117 0.439
21.7222 0.419
21.7327 0.398
21.7432 0.480
21.7538 0.449
21.7643 0.439
21.7748 0.419
21.7853 0.388
21.7959 0.511
21.8064 0.439
21.8169 0.439
21.8274 0.368
21.8380 0.296
21.8485 0.327
21.8590 0.327
21.8695 0.398
21.8800 0.490
21.8906 0.317
21.9011 0.429
21.9116 0.449
21.9221 0.347
21.9327 0.398
21.9432 0.470
21.9537 0.408
21.9642 0.429
21.9747 0.306
21.9853 0.378
21.9958 0.266
22.0063 0.500
22.0168 0.490
22.0274 0.388
22.0379 0.398
22.0484 0.419
22.0589 0.388
22.0694 0.357
22.0800 0.357
22.0905 0.408
22.1010 0.429
22.1115 0.500
22.1221 0.419
22.1326 0.378
22.1431 0.296
22.1536 0.327
22.1642 0.327
22.1747 0.347
22.1852 0.327
22.1957 0.521
22.2062 0.388
22.2168 0.368
22.2273 0.429
22.2378 0.419
22.2483 0.470
22.2589 0.408
22.2694 0.378
22.2799 0.368
22.2904 0.337
22.3009 0.408
22.3115 0.408
22.3220 0.490
22.3325 0.368
22.3430 0.511
22.3536 0.531
22.3641 0.511
22.3746 0.378
22.3851 0.633
22.3956 0.470
22.4062 0.449
22.4167 0.490
22.4272 0.439
22.4377 0.613
22.4483 0.490
22.4588 0.521
22.4693 0.664
22.4798 0.705
22.4904 0.837
22.5009 0.582
22.5114 0.776
22.5219 0.633
22.5324 0.960
22.5430 0.940
22.5535 0.970
22.5640 1.042
22.5745 1.277
22.5851 1.481
22.5956 1.552
22.6061 1.705
22.6166 2.063
22.6271 2.114
22.6377 2.798
22.6482 3.002
22.6587 3.452
22.6692 4.146
22.6798 4.769
22.6903 4.596
22.7008 4.994
22.7113 5.178
22.7219 5.127
22.7324 5.300
22.7429 4.994
22.7534 4.769
22.7639 4.136
22.7745 3.738
22.7850 3.176
22.7955 3.064
22.8060 2.788
22.8166 2.063
22.8271 1.940
22.8376 1.563
22.8481 1.450
22.8586 1.246
22.8692 0.888
22.8797 1.001
22.8902 0.970
22.9007 0.756
22.9113 0.888
22.9218 0.817
22.9323 0.756
22.9428 0.541
22.9533 0.633
22.9639 0.603
22.9744 0.623
22.9849 0.490
22.9954 0.460
23.0060 0.470
23.0165 0.470
23.0270 0.623
23.0375 0.562
23.0481 0.419
23.0586 0.429
23.0691 0.592
23.0796 0.500
23.0901 0.603
23.1007 0.398
23.1112 0.490
23.1217 0.419
23.1322 0.327
23.1428 0.531
23.1533 0.357
23.1638 0.347
23.1743 0.408
23.1848 0.439
23.1954 0.531
23.2059 0.419
23.2164 0.388
23.2269 0.357
23.2375 0.500
23.2480 0.408
23.2585 0.470
23.2690 0.398
23.2795 0.419
23.2901 0.449
23.3006 0.449
23.3111 0.429
23.3216 0.255
23.3322 0.347
23.3427 0.398
23.3532 0.357
23.3637 0.480
23.3743 0.408
23.3848 0.429
23.3953 0.276
23.4058 0.408
23.4163 0.439
23.4269 0.408
23.4374 0.368
23.4479 0.460
23.4584 0.490
23.4690 0.357
23.4795 0.347
23.4900 0.286
23.5005 0.439
23.5110 0.317
23.5216 0.225
23.5321 0.357
23.5426 0.470
23.5531 0.449
23.5637 0.337
23.5742 0.388
23.5847 0.378
23.5952 0.347
23.6058 0.419
23.6163 0.368
23.6268 0.286
23.6373 0.388
23.6478 0.429
23.6584 0.357
23.6689 0.439
23.6794 0.419
23.6899 0.388
23.7005 0.460
23.7110 0.460
23.7215 0.317
23.7320 0.480
23.7425 0.470
23.7531 0.388
23.7636 0.429
23.7741 0.460
23.7846 0.439
23.7952 0.490
23.8057 0.327
23.8162 0.490
23.8267 0.541
23.8372 0.439
23.8478 0.419
23.8583 0.439
23.8688 0.470
23.8793 0.674
23.8899 0.735
23.9004 0.521
23.9109 0.572
23.9214 0.715
23.9320 0.766
23.9425 0.817
23.9530 0.827
23.9635 0.899
23.9740 0.991
23.9846 1.174
23.9951 1.491
24.0056 1.491
24.0161 1.685
24.0267 1.736
24.0372 1.920
24.0477 2.216
24.0582 1.951
24.0687 2.042
24.0793 1.951
24.0898 1.838
24.1003 1.981
24.1108 1.705
24.1214 1.603
24.1319 1.501
24.1424 1.389
24.1529 1.113
24.1635 1.134
24.1740 0.827
24.1845 0.878
24.1950 0.776
24.2055 0.480
24.2161 0.715
24.2266 0.613
24.2371 0.490
24.2476 0.572
24.2582 0.592
24.2687 0.572
24.2792 0.419
24.2897 0.480
24.3002 0.511
24.3108 0.541
24.3213 0.551
24.3318 0.511
24.3423 0.276
24.3529 0.439
24.3634 0.439
24.3739 0.327
24.3844 0.317
24.3949 0.398
24.4055 0.419
24.4160 0.317
24.4265 0.296
24.4370 0.460
24.4476 0.337
24.4581 0.337
24.4686 0.296
24.4791 0.388
24.4897 0.255
24.5002 0.429
24.5107 0.337
24.5212 0.378
24.5317 0.337
24.5423 0.449
24.5528 0.317
24.5633 0.337
24.5738 0.388
24.5844 0.398
24.5949 0.378
24.6054 0.511
24.6159 0.408
24.6264 0.266
24.6370 0.378
24.6475 0.419
24.6580 0.511
24.6685 0.357
24.6791 0.460
24.6896 0.357
24.7001 0.419
24.7106 0.357
24.7211 0.439
24.7317 0.388
24.7422 0.368
24.7527 0.347
24.7632 0.449
24.7738 0.480
24.7843 0.490
24.7948 0.317
24.8053 0.398
24.8159 0.306
24.8264 0.378
24.8369 0.419
24.8474 0.470
24.8579 0.347
24.8685 0.357
24.8790 0.378
24.8895 0.419
24.9000 0.357
24.9106 0.419
24.9211 0.327
24.9316 0.572
24.9421 0.357
24.9526 0.460
24.9632 0.500
24.9737 0.429
24.9842 0.470
24.9947 0.521
25.0053 0.582
25.0158 0.419
25.0263 0.460
25.0368 0.439
25.0474 0.357
25.0579 0.429
25.0684 0.521
25.0789 0.460
25.0894 0.551
25.1000 0.470
25.1105 0.449
25.1210 0.470
25.1315 0.613
25.1421 0.449
25.1526 0.531
25.1631 0.592
25.1736 0.684
25.1841 0.521
25.1947 0.613
25.2052 0.592
25.2157 0.623
25.2262 0.643
25.2368 0.664
25.2473 0.837
25.2578 0.766
25.2683 0.725
25.2788 0.746
25.2894 0.735
25.2999 1.072
25.3104 0.878
25.3209 1.144
25.3315 1.103
25.3420 1.256
25.3525 1.256
25.3630 1.665
25.3736 1.491
25.3841 1.654
25.3946 2.022
25.4051 2.257
25.4156 2.778
25.4262 2.747
25.4367 3.431
25.4472 3.625
25.4577 4.698
25.4683 4.912
25.4788 6.199
25.4893 7.149
25.4998 8.497
25.5103 10.151
25.5209 11.489
25.5314 12.776
25.5419 13.654
25.5524 16.176
25.5630 16.902
25.5735 17.892
25.5840 18.505
25.5945 18.188
25.6050 17.136
25.6156 17.402
25.6261 16.391
25.6366 14.481
25.6471 13.756
25.6577 11.540
25.6682 10.570
25.6787 8.425
25.6892 7.649
25.6998 6.301
25.7103 5.382
25.7208 4.820
25.7313 4.013
25.7418 3.503
25.7524 3.258
25.7629 2.757
25.7734 2.522
25.7839 2.165
25.7945 1.757
25.8050 1.808
25.8155 1.654
25.8260 1.430
25.8365 1.328
25.8471 1.266
25.8576 1.031
25.8681 0.899
25.8786 0.909
25.8892 0.878
25.8997 1.021
25.9102 0.909
25.9207 0.684
25.9313 0.837
25.9418 0.735
25.9523 0.766
25.9628 0.623
25.9733 0.664
25.9839 0.603
25.9944 0.623
26.0049 0.460
26.0154 0.439
26.0260 0.664
26.0365 0.511
26.0470 0.398
26.0575 0.572
26.0680 0.480
26.0786 0.480
26.0891 0.449
26.0996 0.439
26.1101 0.480
26.1207 0.429
26.1312 0.572
26.1417 0.531
26.1522 0.511
26.1627 0.347
26.1733 0.582
26.1838 0.490
26.1943 0.419
26.2048 0.408
26.2154 0.388
26.2259 0.408
26.2364 0.419
26.2469 0.521
26.2575 0.490
26.2680 0.368
26.2785 0.562
26.2890 0.357
26.2995 0.531
26.3101 0.490
26.3206 0.429
26.3311 0.500
26.3416 0.327
26.3522 0.306
26.3627 0.337
26.3732 0.398
26.3837 0.449
26.3942 0.378
26.4048 0.449
26.4153 0.296
26.4258 0.357
26.4363 0.449
26.4469 0.347
26.4574 0.337
26.4679 0.337
26.4784 0.255
26.4889 0.460
26.4995 0.255
26.5100 0.296
26.5205 0.439
26.5310 0.378
26.5416 0.368
26.5521 0.398
26.5626 0.398
26.5731 0.184
26.5837 0.245
26.5942 0.500
26.6047 0.388
26.6152 0.419
26.6257 0.337
26.6363 0.408
26.6468 0.347
26.6573 0.306
26.6678 0.460
26.6784 0.337
26.6889 0.419
26.6994 0.306
26.7099 0.337
26.7204 0.439
26.7310 0.194
26.7415 0.398
26.7520 0.327
26.7625 0.317
26.7731 0.480
26.7836 0.266
26.7941 0.286
26.8046 0.388
26.8152 0.337
26.8257 0.470
26.8362 0.337
26.8467 0.255
26.8572 0.470
26.8678 0.429
26.8783 0.337
26.8888 0.286
26.8993 0.286
26.9099 0.245
26.9204 0.317
26.9309 0.337
26.9414 0.388
26.9519 0.296
26.9625 0.337
26.9730 0.398
26.9835 0.296
26.9940 0.347
27.0046 0.368
27.0151 0.449
27.0256 0.337
27.0361 0.419
27.0466 0.357
27.0572 0.245
27.0677 0.449
27.0782 0.306
27.0887 0.235
27.0993 0.296
27.1098 0.296
27.1203 0.347
27.1308 0.225
27.1414 0.306
27.1519 0.317
27.1624 0.317
27.1729 0.337
27.1834 0.388
27.1940 0.286
27.2045 0.337
27.2150 0.347
27.2255 0.286
27.2361 0.357
27.2466 0.266
27.2571 0.306
27.2676 0.306
27.2781 0.378
27.2887 0.306
27.2992 0.449
27.3097 0.214
27.3202 0.439
27.3308 0.276
27.3413 0.306
27.3518 0.327
27.3623 0.357
27.3728 0.388
27.3834 0.357
27.3939 0.317
27.4044 0.286
27.4149 0.419
27.4255 0.439
27.4360 0.337
27.4465 0.317
27.4570 0.306
27.4676 0.347
27.4781 0.204
27.4886 0.296
27.4991 0.357
27.5096 0.378
27.5202 0.408
27.5307 0.337
27.5412 0.388
27.5517 0.337
27.5623 0.296
27.5728 0.276
27.5833 0.306
27.5938 0.306
27.6043 0.388
27.6149 0.327
27.6254 0.255
27.6359 0.368
27.6464 0.327
27.6570 0.266
27.6675 0.429
27.6780 0.327
27.6885 0.296
27.6991 0.286
27.7096 0.378
27.7201 0.306
27.7306 0.337
27.7411 0.327
27.7517 0.337
27.7622 0.347
27.7727 0.286
27.7832 0.245
27.7938 0.255
27.8043 0.296
27.8148 0.255
27.8253 0.429
27.8358 0.347
27.8464 0.276
27.8569 0.419
27.8674 0.286
27.8779 0.296
27.8885 0.337
27.8990 0.266
27.9095 0.368
27.9200 0.306
27.9305 0.470
27.9411 0.388
27.9516 0.286
27.9621 0.347
27.9726 0.368
27.9832 0.439
27.9937 0.245
28.0042 0.306
28.0147 0.296
28.0253 0.296
28.0358 0.286
28.0463 0.357
28.0568 0.378
28.0673 0.327
28.0779 0.317
28.0884 0.337
28.0989 0.296
28.1094 0.276
28.1200 0.317
28.1305 0.266
28.1410 0.317
28.1515 0.296
28.1620 0.347
28.1726 0.235
28.1831 0.296
28.1936 0.449
28.2041 0.276
28.2147 0.317
28.2252 0.378
28.2357 0.368
28.2462 0.214
28.2568 0.449
28.2673 0.306
28.2778 0.327
28.2883 0.306
28.2988 0.337
28.3094 0.368
28.3199 0.337
28.3304 0.276
28.3409 0.245
28.3515 0.337
28.3620 0.276
28.3725 0.470
28.3830 0.306
28.3935 0.317
28.4041 0.245
28.4146 0.286
28.4251 0.317
28.4356 0.337
28.4462 0.337
28.4567 0.398
28.4672 0.286
28.4777 0.286
28.4882 0.286
28.4988 0.306
28.5093 0.276
28.5198 0.286
28.5303 0.357
28.5409 0.255
28.5514 0.317
28.5619 0.347
28.5724 0.357
28.5830 0.347
28.5935 0.306
28.6040 0.327
28.6145 0.347
28.6250 0.378
28.6356 0.429
28.6461 0.398
28.6566 0.419
28.6671 0.541
28.6777 0.327
28.6882 0.306
28.6987 0.357
28.7092 0.347
28.7197 0.357
28.7303 0.347
28.7408 0.347
28.7513 0.368
28.7618 0.378
28.7724 0.276
28.7829 0.388
28.7934 0.337
28.8039 0.266
28.8144 0.419
28.8250 0.317
28.8355 0.306
28.8460 0.306
28.8565 0.378
28.8671 0.439
28.8776 0.306
28.8881 0.347
28.8986 0.368
28.9092 0.398
28.9197 0.408
28.9302 0.245
28.9407 0.296
28.9512 0.214
28.9618 0.388
28.9723 0.327
28.9828 0.398
28.9933 0.378
29.0039 0.245
29.0144 0.245
29.0249 0.531
29.0354 0.368
29.0459 0.327
29.0565 0.337
29.0670 0.317
29.0775 0.480
29.0880 0.327
29.0986 0.408
29.1091 0.368
29.1196 0.562
29.1301 0.470
29.1407 0.408
29.1512 0.368
29.1617 0.408
29.1722 0.419
29.1827 0.490
29.1933 0.449
29.2038 0.398
29.2143 0.439
29.2248 0.470
29.2354 0.460
29.2459 0.460
29.2564 0.398
29.2669 0.449
29.2774 0.500
29.2880 0.592
29.2985 0.500
29.3090 0.500
29.3195 0.623
29.3301 0.541
29.3406 0.531
29.3511 0.654
29.3616 0.633
29.3721 0.654
29.3827 0.664
29.3932 0.664
29.4037 0.715
29.4142 0.756
29.4248 0.848
29.4353 0.746
29.4458 0.837
29.4563 0.827
29.4669 1.083
29.4774 1.246
29.4879 1.062
29.4984 1.440
29.5089 1.379
29.5195 1.368
29.5300 1.665
29.5405 1.900
29.5510 1.757
29.5616 2.104
29.5721 2.461
29.5826 2.717
29.5931 2.829
29.6036 2.982
29.6142 3.636
29.6247 3.881
29.6352 4.361
29.6457 5.065
29.6563 5.842
29.6668 6.383
29.6773 7.475
29.6878 8.068
29.6983 9.120
29.7089 10.008
29.7194 10.662
29.7299 11.234
29.7404 12.122
29.7510 13.021
29.7615 13.266
29.7720 14.154
29.7825 14.134
29.7931 13.868
29.8036 13.194
29.8141 12.623
29.8246 12.429
29.8351 10.703
29.8457 10.580
29.8562 9.355
29.8667 9.620
29.8772 7.802
29.8878 7.138
29.8983 6.168
29.9088 5.331
29.9193 4.922
29.9298 4.361
29.9404 3.636
29.9509 3.002
29.9614 2.829
29.9719 2.155
29.9825 2.104
29.9930 1.757
30.0035 1.634
30.0140 1.430
30.0246 1.277
30.0351 1.317
30.0456 1.103
30.0561 1.072
30.0666 0.909
30.0772 0.817
30.0877 0.848
30.0982 0.725
30.1087 0.766
30.1193 0.643
30.1298 0.694
30.1403 0.572
30.1508 0.613
30.1613 0.613
30.1719 0.511
30.1824 0.541
30.1929 0.511
30.2034 0.511
30.2140 0.613
30.2245 0.378
30.2350 0.613
30.2455 0.460
30.2560 0.531
30.2666 0.521
30.2771 0.408
30.2876 0.470
30.2981 0.357
30.3087 0.398
30.3192 0.429
30.3297 0.408
30.3402 0.357
30.3508 0.419
30.3613 0.460
30.3718 0.398
30.3823 0.408
30.3928 0.337
30.4034 0.327
30.4139 0.327
30.4244 0.419
30.4349 0.357
30.4455 0.327
30.4560 0.419
30.4665 0.337
30.4770 0.266
30.4875 0.357
30.4981 0.378
30.5086 0.337
30.5191 0.357
30.5296 0.429
30.5402 0.378
30.5507 0.327
30.5612 0.327
30.5717 0.398
30.5822 0.337
30.5928 0.255
30.6033 0.347
30.6138 0.266
30.6243 0.419
30.6349 0.378
30.6454 0.398
30.6559 0.266
30.6664 0.245
30.6770 0.357
30.6875 0.347
30.6980 0.255
30.7085 0.317
30.7190 0.266
30.7296 0.337
30.7401 0.296
30.7506 0.306
30.7611 0.408
30.7717 0.235
30.7822 0.214
30.7927 0.184
30.8032 0.449
30.8137 0.245
30.8243 0.306
30.8348 0.245
30.8453 0.296
30.8558 0.296
30.8664 0.327
30.8769 0.255
30.8874 0.327
30.8979 0.245
30.9085 0.337
30.9190 0.357
30.9295 0.276
30.9400 0.306
30.9505 0.266
30.9611 0.296
30.9716 0.214
30.9821 0.235
30.9926 0.266
31.0032 0.276
31.0137 0.327
31.0242 0.255
31.0347 0.296
31.0452 0.225
31.0558 0.317
31.0663 0.357
31.0768 0.245
31.0873 0.317
31.0979 0.245
31.1084 0.235
31.1189 0.266
31.1294 0.368
31.1399 0.266
31.1505 0.245
31.1610 0.439
31.1715 0.286
31.1820 0.327
31.1926 0.225
31.2031 0.245
31.2136 0.245
31.2241 0.255
31.2347 0.286
31.2452 0.347
31.2557 0.317
31.2662 0.347
31.2767 0.388
31.2873 0.255
31.2978 0.306
31.3083 0.327
31.3188 0.327
31.3294 0.317
31.3399 0.255
31.3504 0.286
31.3609 0.306
31.3714 0.266
31.3820 0.214
31.3925 0.276
31.4030 0.266
31.4135 0.368
31.4241 0.276
31.4346 0.306
31.4451 0.317
31.4556 0.214
31.4662 0.398
31.4767 0.214
31.4872 0.276
31.4977 0.204
31.5082 0.337
31.5188 0.286
31.5293 0.286
31.5398 0.306
31.5503 0.296
31.5609 0.388
31.5714 0.327
31.5819 0.337
31.5924 0.317
31.6029 0.368
31.6135 0.255
31.6240 0.286
31.6345 0.388
31.6450 0.317
31.6556 0.276
31.6661 0.368
31.6766 0.245
31.6871 0.204
31.6976 0.398
31.7082 0.347
31.7187 0.368
31.7292 0.357
31.7397 0.266
31.7503 0.327
31.7608 0.327
31.7713 0.327
31.7818 0.327
31.7924 0.388
31.8029 0.419
31.8134 0.408
31.8239 0.429
31.8344 0.449
31.8450 0.337
31.8555 0.357
31.8660 0.327
31.8765 0.357
31.8871 0.276
31.8976 0.470
31.9081 0.378
31.9186 0.439
31.9291 0.551
31.9397 0.480
31.9502 0.572
31.9607 0.664
31.9712 0.511
31.9818 0.572
31.9923 0.623
32.0028 0.746
32.0133 0.654
32.0238 0.929
32.0344 0.980
32.0449 0.991
32.0554 1.083
32.0659 1.144
32.0765 1.471
32.0870 1.624
32.0975 1.665
32.1080 2.318
32.1186 2.543
32.1291 3.043
32.1396 3.360
32.1501 3.819
32.1606 4.524
32.1712 5.137
32.1817 5.402
32.1922 5.607
32.2027 6.546
32.2133 6.679
32.2238 7.159
32.2343 6.669
32.2448 6.996
32.2553 5.913
32.2659 5.556
32.2764 4.555
32.2869 4.146
32.2974 3.799
32.3080 3.554
32.3185 3.156
32.3290 2.900
32.3395 1.971
32.3501 1.716
32.3606 1.920
32.3711 1.542
32.3816 1.654
32.3921 1.338
32.4027 1.246
32.4132 0.909
32.4237 0.980
32.4342 0.837
32.4448 0.756
32.4553 0.868
32.4658 0.592
32.4763 0.541
32.4868 0.633
32.4974 0.551
32.5079 0.603
32.5184 0.541
32.5289 0.480
32.5395 0.541
32.5500 0.582
32.5605 0.439
32.5710 0.429
32.5815 0.511
32.5921 0.460
32.6026 0.306
32.6131 0.511
32.6236 0.378
32.6342 0.347
32.6447 0.286
32.6552 0.327
32.6657 0.357
32.6763 0.398
32.6868 0.276
32.6973 0.388
32.7078 0.255
32.7183 0.368
32.7289 0.337
32.7394 0.266
32.7499 0.245
32.7604 0.347
32.7710 0.204
32.7815 0.306
32.7920 0.266
32.8025 0.327
32.8130 0.255
32.8236 0.225
32.8341 0.214
32.8446 0.317
32.8551 0.317
32.8657 0.327
32.8762 0.296
32.8867 0.255
32.8972 0.184
32.9077 0.255
32.9183 0.174
32.9288 0.531
32.9393 0.306
32.9498 0.306
32.9604 0.378
32.9709 0.327
32.9814 0.296
32.9919 0.184
33.0025 0.378
33.0130 0.368
33.0235 0.286
33.0340 0.286
33.0445 0.317
33.0551 0.235
33.0656 0.317
33.0761 0.204
33.0866 0.174
33.0972 0.327
33.1077 0.317
33.1182 0.214
33.1287 0.245
33.1392 0.296
33.1498 0.286
33.1603 0.296
33.1708 0.245
33.1813 0.368
33.1919 0.174
33.2024 0.225
33.2129 0.317
33.2234 0.327
33.2340 0.276
33.2445 0.327
33.2550 0.225
33.2655 0.286
33.2760 0.235
33.2866 0.337
33.2971 0.286
33.3076 0.286
33.3181 0.276
33.3287 0.296
33.3392 0.286
33.3497 0.225
33.3602 0.296
33.3707 0.266
33.3813 0.276
33.3918 0.276
33.4023 0.317
33.4128 0.276
33.4234 0.204
33.4339 0.235
33.4444 0.276
33.4549 0.276
33.4654 0.174
33.4760 0.327
33.4865 0.368
33.4970 0.266
33.5075 0.337
33.5181 0.296
33.5286 0.306
33.5391 0.337
33.5496 0.357
33.5602 0.296
33.5707 0.225
33.5812 0.306
33.5917 0.245
33.6022 0.194
33.6128 0.276
33.6233 0.204
33.6338 0.327
33.6443 0.174
33.6549 0.296
33.6654 0.225
33.6759 0.245
33.6864 0.317
33.6969 0.286
33.7075 0.235
33.7180 0.204
33.7285 0.317
33.7390 0.204
33.7496 0.214
33.7601 0.266
33.7706 0.378
33.7811 0.306
33.7916 0.286
33.8022 0.276
33.8127 0.266
33.8232 0.296
33.8337 0.204
33.8443 0.347
33.8548 0.337
33.8653 0.347
33.8758 0.398
33.8864 0.245
33.8969 0.225
33.9074 0.296
33.9179 0.245
33.9284 0.225
33.9390 0.276
33.9495 0.214
33.9600 0.245
33.9705 0.266
33.9811 0.245
33.9916 0.408
34.0021 0.245
34.0126 0.245
34.0231 0.296
34.0337 0.317
34.0442 0.266
34.0547 0.214
34.0652 0.255
34.0758 0.214
34.0863 0.419
34.0968 0.184
34.1073 0.194
34.1179 0.204
34.1284 0.296
34.1389 0.306
34.1494 0.286
34.1599 0.235
34.1705 0.276
34.1810 0.286
34.1915 0.276
34.2020 0.296
34.2126 0.286
34.2231 0.378
34.2336 0.296
34.2441 0.255
34.2546 0.255
34.2652 0.235
34.2757 0.317
34.2862 0.347
34.2967 0.368
34.3073 0.357
34.3178 0.327
34.3283 0.266
34.3388 0.296
34.3493 0.276
34.3599 0.255
34.3704 0.337
34.3809 0.480
34.3914 0.368
34.4020 0.388
34.4125 0.388
34.4230 0.347
34.4335 0.378
34.4441 0.398
34.4546 0.388
34.4651 0.306
34.4756 0.429
34.4861 0.480
34.4967 0.511
34.5072 0.531
34.5177 0.572
34.5282 0.541
34.5388 0.592
34.5493 0.582
34.5598 0.582
34.5703 0.674
34.5808 0.603
34.5914 0.470
34.6019 0.603
34.6124 0.725
34.6229 0.664
34.6335 0.633
34.6440 0.572
34.6545 0.541
34.6650 0.603
34.6756 0.388
34.6861 0.572
34.6966 0.490
34.7071 0.449
34.7176 0.592
34.7282 0.439
34.7387 0.347
34.7492 0.480
34.7597 0.500
34.7703 0.480
34.7808 0.317
34.7913 0.603
34.8018 0.460
34.8123 0.419
34.8229 0.347
34.8334 0.266
34.8439 0.347
34.8544 0.439
34.8650 0.460
34.8755 0.429
34.8860 0.327
34.8965 0.357
34.9070 0.408
34.9176 0.296
34.9281 0.429
34.9386 0.317
34.9491 0.327
34.9597 0.378
34.9702 0.337
34.9807 0.419
34.9912 0.521
35.0018 0.388
35.0123 0.347
35.0228 0.460
35.0333 0.408
35.0438 0.378
35.0544 0.439
35.0649 0.603
35.0754 0.398
35.0859 0.480
35.0965 0.347
35.1070 0.500
35.1175 0.480
35.1280 0.439
35.1385 0.592
35.1491 0.603
35.1596 0.521
35.1701 0.592
35.1806 0.623
35.1912 0.705
35.2017 0.603
35.2122 0.797
35.2227 0.633
35.2332 0.643
35.2438 0.766
35.2543 0.592
35.2648 0.827
35.2753 1.001
35.2859 1.011
35.2964 0.929
35.3069 1.052
35.3174 1.052
35.3280 0.899
35.3385 1.236
35.3490 1.379
35.3595 1.399
35.3700 1.603
35.3806 1.736
35.3911 2.165
35.4016 2.155
35.4121 2.420
35.4227 2.379
35.4332 3.105
35.4437 3.350
35.4542 4.330
35.4647 4.412
35.4753 4.922
35.4858 6.179
35.4963 6.750
35.5068 8.150
35.5174 8.926
35.5279 9.998
35.5384 11.285
35.5489 12.398
35.5595 14.461
35.5700 17.096
35.5805 17.831
35.5910 19.240
35.6015 18.474
35.6121 19.792
35.6226 18.954
35.6331 18.056
35.6436 17.300
35.6542 15.748
35.6647 15.370
35.6752 12.908
35.6857 11.407
35.6962 10.325
35.7068 9.630
35.7173 8.742
35.7278 7.302
35.7383 6.066
35.7489 5.831
35.7594 4.810
35.7699 4.402
35.7804 3.779
35.7909 3.462
35.8015 3.023
35.8120 2.798
35.8225 2.757
35.8330 2.390
35.8436 1.818
35.8541 1.910
35.8646 1.685
35.8751 1.573
35.8857 1.563
35.8962 1.522
35.9067 1.205
35.9172 1.103
35.9277 1.144
35.9383 1.103
35.9488 0.868
35.9593 1.042
35.9698 0.919
35.9804 0.848
35.9909 0.776
36.0014 0.643
36.0119 0.858
36.0224 0.746
36.0330 0.582
36.0435 0.572
36.0540 0.582
36.0645 0.562
36.0751 0.643
36.0856 0.735
36.0961 0.613
36.1066 0.633
36.1171 0.490
36.1277 0.521
36.1382 0.551
36.1487 0.674
36.1592 0.582
36.1698 0.582
36.1803 0.643
36.1908 0.694
36.2013 0.460
36.2119 0.694
36.2224 0.664
36.2329 0.541
36.2434 0.694
36.2539 0.531
36.2645 0.623
36.2750 0.694
36.2855 0.623
36.2960 0.735
36.3066 0.725
36.3171 0.776
36.3276 0.654
36.3381 0.776
36.3486 1.185
36.3592 0.919
36.3697 1.205
36.3802 1.011
36.3907 1.246
36.4013 1.277
36.4118 1.491
36.4223 1.665
36.4328 1.716
36.4434 1.889
36.4539 2.032
36.4644 2.359
36.4749 2.410
36.4854 2.962
36.4960 3.380
36.5065 3.666
36.5170 4.197
36.5275 4.299
36.5381 5.096
36.5486 4.820
36.5591 5.647
36.5696 5.637
36.5801 5.678
36.5907 5.933
36.6012 6.025
36.6117 6.097
36.6222 5.525
36.6328 5.065
36.6433 4.708
36.6538 4.841
36.6643 4.259
36.6748 3.871
36.6854 3.564
36.6959 2.911
36.7064 2.859
36.7169 2.431
36.7275 2.073
36.7380 1.818
36.7485 1.757
36.7590 1.430
36.7696 1.440
36.7801 1.409
36.7906 1.031
36.8011 1.072
36.8116 0.980
36.8222 0.950
36.8327 1.093
36.8432 0.684
36.8537 0.562
36.8643 0.664
36.8748 0.500
36.8853 0.725
36.8958 0.562
36.9063 0.531
36.9169 0.460
36.9274 0.511
36.9379 0.521
36.9484 0.541
36.9590 0.317
36.9695 0.419
36.9800 0.368
36.9905 0.388
37.0010 0.419
37.0116 0.378
37.0221 0.317
37.0326 0.470
37.0431 0.327
37.0537 0.296
37.0642 0.235
37.0747 0.337
37.0852 0.255
37.0958 0.317
37.1063 0.296
37.1168 0.235
37.1273 0.357
37.1378 0.327
37.1484 0.266
37.1589 0.317
37.1694 0.255
37.1799 0.337
37.1905 0.317
37.2010 0.439
37.2115 0.235
37.2220 0.327
37.2325 0.317
37.2431 0.225
37.2536 0.306
37.2641 0.276
37.2746 0.143
37.2852 0.317
37.2957 0.337
37.3062 0.286
37.3167 0.225
37.3273 0.327
37.3378 0.255
37.3483 0.296
37.3588 0.276
37.3693 0.255
37.3799 0.296
37.3904 0.398
37.4009 0.235
37.4114 0.347
37.4220 0.214
37.4325 0.184
37.4430 0.286
37.4535 0.378
37.4640 0.266
37.4746 0.296
37.4851 0.327
37.4956 0.419
37.5061 0.225
37.5167 0.357
37.5272 0.357
37.5377 0.266
37.5482 0.378
37.5587 0.276
37.5693 0.398
37.5798 0.378
37.5903 0.439
37.6008 0.439
37.6114 0.337
37.6219 0.460
37.6324 0.398
37.6429 0.541
37.6535 0.592
37.6640 0.480
37.6745 0.408
37.6850 0.613
37.6955 0.705
37.7061 0.715
37.7166 0.715
37.7271 0.878
37.7376 0.817
37.7482 0.888
37.7587 1.021
37.7692 0.725
37.7797 1.215
37.7902 1.450
37.8008 1.501
37.8113 1.654
37.8218 1.757
37.8323 2.216
37.8429 2.563
37.8534 2.972
37.8639 3.248
37.8744 3.615
37.8849 3.962
37.8955 3.809
37.9060 4.075
37.9165 3.901
37.9270 4.208
37.9376 3.962
37.9481 3.687
37.9586 3.789
37.9691 3.411
37.9797 2.972
37.9902 2.635
38.0007 2.369
38.0112 2.053
38.0217 1.665
38.0323 1.900
38.0428 1.624
38.0533 1.174
38.0638 1.440
38.0744 1.297
38.0849 0.837
38.0954 0.827
38.1059 0.868
38.1164 0.674
38.1270 0.613
38.1375 0.735
38.1480 0.684
38.1585 0.664
38.1691 0.551
38.1796 0.572
38.1901 0.531
38.2006 0.511
38.2112 0.531
38.2217 0.531
38.2322 0.439
38.2427 0.357
38.2532 0.480
38.2638 0.623
38.2743 0.490
38.2848 0.398
38.2953 0.541
38.3059 0.449
38.3164 0.388
38.3269 0.541
38.3374 0.419
38.3479 0.398
38.3585 0.388
38.3690 0.388
38.3795 0.255
38.3900 0.419
38.4006 0.317
38.4111 0.368
38.4216 0.347
38.4321 0.368
38.4426 0.337
38.4532 0.296
38.4637 0.368
38.4742 0.357
38.4847 0.266
38.4953 0.286
38.5058 0.276
38.5163 0.317
38.5268 0.194
38.5374 0.398
38.5479 0.296
38.5584 0.317
38.5689 0.276
38.5794 0.296
38.5900 0.337
38.6005 0.327
38.6110 0.276
38.6215 0.235
38.6321 0.204
38.6426 0.133
38.6531 0.235
38.6636 0.225
38.6741 0.286
38.6847 0.245
38.6952 0.225
38.7057 0.245
38.7162 0.225
38.7268 0.214
38.7373 0.245
38.7478 0.245
38.7583 0.296
38.7689 0.306
38.7794 0.266
38.7899 0.306
38.8004 0.255
38.8109 0.225
38.8215 0.235
38.8320 0.327
38.8425 0.327
38.8530 0.153
38.8636 0.214
38.8741 0.347
38.8846 0.225
38.8951 0.306
38.9056 0.174
38.9162 0.235
38.9267 0.286
38.9372 0.214
38.9477 0.327
38.9583 0.296
38.9688 0.306
38.9793 0.337
38.9898 0.327
39.0003 0.225
39.0109 0.235
39.0214 0.388
39.0319 0.276
39.0424 0.357
39.0530 0.521
39.0635 0.306
39.0740 0.286
39.0845 0.388
39.0951 0.357
39.1056 0.419
39.1161 0.511
39.1266 0.439
39.1371 0.541
39.1477 0.531
39.1582 0.603
39.1687 0.531
39.1792 0.817
39.1898 0.888
39.2003 1.042
39.2108 1.123
39.2213 1.113
39.2318 1.113
39.2424 1.379
39.2529 1.614
39.2634 1.869
39.2739 2.083
39.2845 1.828
39.2950 2.308
39.3055 2.533
39.3160 2.696
39.3265 2.604
39.3371 2.747
39.3476 2.594
39.3581 2.441
39.3686 2.594
39.3792 2.185
39.3897 2.369
39.4002 1.930
39.4107 1.818
39.4213 1.563
39.4318 1.583
39.4423 1.583
39.4528 1.266
39.4633 1.195
39.4739 1.348
39.4844 1.256
39.4949 1.083
39.5054 1.134
39.5160 1.144
39.5265 1.164
39.5370 1.338
39.5475 1.277
39.5580 1.471
39.5686 1.951
39.5791 2.022
39.5896 2.114
39.6001 2.155
39.6107 2.512
39.6212 2.288
39.6317 2.747
39.6422 3.268
39.6528 3.360
39.6633 3.574
39.6738 3.901
39.6843 4.095
39.6948 4.065
39.7054 4.350
39.7159 4.259
39.7264 4.473
39.7369 4.555
39.7475 4.769
39.7580 4.575
39.7685 4.739
39.7790 4.647
39.7895 4.882
39.8001 4.596
39.8106 4.892
39.8211 4.514
39.8316 4.892
39.8422 4.289
39.8527 3.605
39.8632 3.768
39.8737 2.992
39.8842 2.839
39.8948 2.859
39.9053 2.522
39.9158 2.175
39.9263 2.196
39.9369 1.705
39.9474 1.685
39.9579 1.450
39.9684 1.174
39.9790 1.052
39.9895 1.103
40.0000 0.940
40.0105 0.868
40.0210 0.725
40.0316 0.613
40.0421 0.674
40.0526 0.715
40.0631 0.603
40.0737 0.603
40.0842 0.500
40.0947 0.582
40.1052 0.439
40.1157 0.429
40.1263 0.490
40.1368 0.357
40.1473 0.388
40.1578 0.439
40.1684 0.429
40.1789 0.408
40.1894 0.470
40.1999 0.378
40.2104 0.388
40.2210 0.306
40.2315 0.490
40.2420 0.276
40.2525 0.429
40.2631 0.245
40.2736 0.266
40.2841 0.214
40.2946 0.419
40.3052 0.368
40.3157 0.368
40.3262 0.266
40.3367 0.296
40.3472 0.225
40.3578 0.266
40.3683 0.245
40.3788 0.286
40.3893 0.317
40.3999 0.347
40.4104 0.286
40.4209 0.245
40.4314 0.296
40.4419 0.225
40.4525 0.204
40.4630 0.317
40.4735 0.276
40.4840 0.296
40.4946 0.276
40.5051 0.184
40.5156 0.214
40.5261 0.214
40.5367 0.286
40.5472 0.337
40.5577 0.225
40.5682 0.235
40.5787 0.266
40.5893 0.266
40.5998 0.225
40.6103 0.204
40.6208 0.255
40.6314 0.327
40.6419 0.204
40.6524 0.266
40.6629 0.296
40.6734 0.204
40.6840 0.163
40.6945 0.194
40.7050 0.317
40.7155 0.204
40.7261 0.245
40.7366 0.306
40.7471 0.225
40.7576 0.286
40.7681 0.184
40.7787 0.153
40.7892 0.214
40.7997 0.102
40.8102 0.143
40.8208 0.163
40.8313 0.184
40.8418 0.266
40.8523 0.153
40.8629 0.266
40.8734 0.184
40.8839 0.174
40.8944 0.276
40.9049 0.184
40.9155 0.204
40.9260 0.225
40.9365 0.153
40.9470 0.245
40.9576 0.204
40.9681 0.286
40.9786 0.276
40.9891 0.235
40.9996 0.174
41.0102 0.266
41.0207 0.317
41.0312 0.194
41.0417 0.214
41.0523 0.184
41.0628 0.214
41.0733 0.194
41.0838 0.214
41.0943 0.204
41.1049 0.174
41.1154 0.235
41.1259 0.163
41.1364 0.184
41.1470 0.235
41.1575 0.235
41.1680 0.225
41.1785 0.194
41.1891 0.102
41.1996 0.163
41.2101 0.204
41.2206 0.225
41.2311 0.225
41.2417 0.092
41.2522 0.317
41.2627 0.296
41.2732 0.286
41.2838 0.214
41.2943 0.245
41.3048 0.194
41.3153 0.174
41.3258 0.214
41.3364 0.174
41.3469 0.296
41.3574 0.306
41.3679 0.133
41.3785 0.235
41.3890 0.286
41.3995 0.255
41.4100 0.255
41.4206 0.163
41.4311 0.184
41.4416 0.204
41.4521 0.143
41.4626 0.286
41.4732 0.174
41.4837 0.163
41.4942 0.255
41.5047 0.214
41.5153 0.194
41.5258 0.235
41.5363 0.306
41.5468 0.204
41.5573 0.153
41.5679 0.194
41.5784 0.184
41.5889 0.123
41.5994 0.163
41.6100 0.276
41.6205 0.286
41.6310 0.276
41.6415 0.153
41.6520 0.112
41.6626 0.184
41.6731 0.133
41.6836 0.225
41.6941 0.337
41.7047 0.255
41.7152 0.235
41.7257 0.317
41.7362 0.245
41.7468 0.214
41.7573 0.276
41.7678 0.245
41.7783 0.245
41.7888 0.225
41.7994 0.368
41.8099 0.337
41.8204 0.225
41.8309 0.317
41.8415 0.286
41.8520 0.286
41.8625 0.286
41.8730 0.266
41.8835 0.266
41.8941 0.378
41.9046 0.347
41.9151 0.378
41.9256 0.398
41.9362 0.357
41.9467 0.460
41.9572 0.347
41.9677 0.429
41.9783 0.419
41.9888 0.408
41.9993 0.449
42.0098 0.582
42.0203 0.551
42.0309 0.531
42.0414 0.613
42.0519 0.766
42.0624 0.633
42.0730 0.919
42.0835 1.113
42.0940 1.164
42.1045 1.307
42.1150 1.317
42.1256 1.481
42.1361 1.471
42.1466 1.685
42.1571 2.288
42.1677 2.369
42.1782 2.502
42.1887 3.033
42.1992 3.115
42.2097 3.115
42.2203 3.278
42.2308 3.339
42.2413 3.196
42.2518 3.401
42.2624 3.176
42.2729 3.196
42.2834 3.064
42.2939 2.604
42.3045 2.359
42.3150 2.410
42.3255 2.155
42.3360 1.838
42.3465 1.828
42.3571 1.542
42.3676 1.563
42.3781 1.205
42.3886 1.205
42.3992 1.072
42.4097 1.083
42.4202 0.868
42.4307 0.746
42.4412 0.735
42.4518 0.888
42.4623 0.623
42.4728 0.449
42.4833 0.500
42.4939 0.633
42.5044 0.480
42.5149 0.398
42.5254 0.388
42.5359 0.419
42.5465 0.460
42.5570 0.439
42.5675 0.276
42.5780 0.378
42.5886 0.286
42.5991 0.317
42.6096 0.368
42.6201 0.398
42.6307 0.266
42.6412 0.255
42.6517 0.204
42.6622 0.235
42.6727 0.255
42.6833 0.276
42.6938 0.306
42.7043 0.214
42.7148 0.276
42.7254 0.235
42.7359 0.235
42.7464 0.286
42.7569 0.245
42.7674 0.286
42.7780 0.296
42.7885 0.266
42.7990 0.174
42.8095 0.245
42.8201 0.163
42.8306 0.174
42.8411 0.266
42.8516 0.266
42.8622 0.245
42.8727 0.133
42.8832 0.235
42.8937 0.317
42.9042 0.225
42.9148 0.286
42.9253 0.266
42.9358 0.225
42.9463 0.225
42.9569 0.214
42.9674 0.163
42.9779 0.276
42.9884 0.306
42.9989 0.143
43.0095 0.174
43.0200 0.245
43.0305 0.194
43.0410 0.214
43.0516 0.235
43.0621 0.174
43.0726 0.245
43.0831 0.194
43.0936 0.184
43.1042 0.123
43.1147 0.112
43.1252 0.143
43.1357 0.133
43.1463 0.204
43.1568 0.184
43.1673 0.255
43.1778 0.276
43.1884 0.163
43.1989 0.194
43.2094 0.112
43.2199 0.184
43.2304 0.225
43.2410 0.143
43.2515 0.194
43.2620 0.184
43.2725 0.133
43.2831 0.184
43.2936 0.214
43.3041 0.143
43.3146 0.071
43.3251 0.214
43.3357 0.266
43.3462 0.214
43.3567 0.163
43.3672 0.184
43.3778 0.255
43.3883 0.194
43.3988 0.082
43.4093 0.174
43.4198 0.245
43.4304 0.163
43.4409 0.204
43.4514 0.245
43.4619 0.163
43.4725 0.143
43.4830 0.194
43.4935 0.133
43.5040 0.204
43.5146 0.204
43.5251 0.174
43.5356 0.143
43.5461 0.184
43.5566 0.143
43.5672 0.174
43.5777 0.163
43.5882 0.153
43.5987 0.214
43.6093 0.184
43.6198 0.204
43.6303 0.214
43.6408 0.235
43.6513 0.214
43.6619 0.123
43.6724 0.194
43.6829 0.133
43.6934 0.153
43.7040 0.184
43.7145 0.214
43.7250 0.174
43.7355 0.225
43.7461 0.163
43.7566 0.153
43.7671 0.112
43.7776 0.235
43.7881 0.153
43.7987 0.255
43.8092 0.163
43.8197 0.174
43.8302 0.163
43.8408 0.163
43.8513 0.204
43.8618 0.214
43.8723 0.245
43.8828 0.143
43.8934 0.204
43.9039 0.225
43.9144 0.306
43.9249 0.184
43.9355 0.204
43.9460 0.266
43.9565 0.235
43.9670 0.225
43.9775 0.235
43.9881 0.174
43.9986 0.204
44.0091 0.214
44.0196 0.276
44.0302 0.174
44.0407 0.174
44.0512 0.184
44.0617 0.194
44.0723 0.255
44.0828 0.266
44.0933 0.204
44.1038 0.357
44.1143 0.174
44.1249 0.225
44.1354 0.204
44.1459 0.357
44.1564 0.337
44.1670 0.255
44.1775 0.245
44.1880 0.235
44.1985 0.245
44.2090 0.378
44.2196 0.306
44.2301 0.327
44.2406 0.337
44.2511 0.327
44.2617 0.357
44.2722 0.480
44.2827 0.460
44.2932 0.460
44.3037 0.429
44.3143 0.603
44.3248 0.531
44.3353 0.868
44.3458 0.603
44.3564 0.541
44.3669 0.766
44.3774 0.848
44.3879 0.858
44.3985 1.083
44.4090 1.001
44.4195 1.174
44.4300 1.083
44.4405 1.215
44.4511 1.215
44.4616 1.215
44.4721 0.970
44.4826 1.154
44.4932 0.827
44.5037 1.164
44.5142 0.899
44.5247 0.746
44.5352 0.776
44.5458 0.551
44.5563 0.643
44.5668 0.664
44.5773 0.531
44.5879 0.592
44.5984 0.521
44.6089 0.368
44.6194 0.368
44.6300 0.378
44.6405 0.286
44.6510 0.378
44.6615 0.429
44.6720 0.286
44.6826 0.306
44.6931 0.357
44.7036 0.255
44.7141 0.214
44.7247 0.398
44.7352 0.306
44.7457 0.327
44.7562 0.204
44.7667 0.266
44.7773 0.327
44.7878 0.225
44.7983 0.429
44.8088 0.286
44.8194 0.327
44.8299 0.429
44.8404 0.500
44.8509 0.511
44.8614 0.470
44.8720 0.521
44.8825 0.480
44.8930 0.684
44.9035 0.603
44.9141 0.623
44.9246 0.919
44.9351 0.776
44.9456 1.021
44.9562 0.858
44.9667 0.929
44.9772 0.940
44.9877 0.960
44.9982 0.960
45.0088 0.878
45.0193 0.817
45.0298 0.746
45.0403 0.970
45.0509 0.858
45.0614 0.684
45.0719 0.715
45.0824 0.562
45.0929 0.633
45.1035 0.551
45.1140 0.429
45.1245 0.541
45.1350 0.500
45.1456 0.429
45.1561 0.357
45.1666 0.306
45.1771 0.357
45.1877 0.347
45.1982 0.306
45.2087 0.266
45.2192 0.317
45.2297 0.306
45.2403 0.286
45.2508 0.225
45.2613 0.245
45.2718 0.266
45.2824 0.163
45.2929 0.235
45.3034 0.174
45.3139 0.194
45.3244 0.317
45.3350 0.214
45.3455 0.112
45.3560 0.184
45.3665 0.235
45.3771 0.245
45.3876 0.235
45.3981 0.225
45.4086 0.184
45.4191 0.337
45.4297 0.266
45.4402 0.235
45.4507 0.174
45.4612 0.123
45.4718 0.184
45.4823 0.225
45.4928 0.153
45.5033 0.296
45.5139 0.245
45.5244 0.194
45.5349 0.225
45.5454 0.184
45.5559 0.153
45.5665 0.184
45.5770 0.245
45.5875 0.266
45.5980 0.143
45.6086 0.163
45.6191 0.204
45.6296 0.235
45.6401 0.143
45.6506 0.123
45.6612 0.184
45.6717 0.235
45.6822 0.153
45.6927 0.204
45.7033 0.174
45.7138 0.153
45.7243 0.174
45.7348 0.184
45.7453 0.235
45.7559 0.174
45.7664 0.133
45.7769 0.204
45.7874 0.214
45.7980 0.174
45.8085 0.194
45.8190 0.255
45.8295 0.235
45.8401 0.174
45.8506 0.194
45.8611 0.204
45.8716 0.143
45.8821 0.225
45.8927 0.214
45.9032 0.225
45.9137 0.102
45.9242 0.194
45.9348 0.163
45.9453 0.174
45.9558 0.214
45.9663 0.153
45.9768 0.255
45.9874 0.163
45.9979 0.153
46.0084 0.225
46.0189 0.235
46.0295 0.184
46.0400 0.184
46.0505 0.174
46.0610 0.174
46.0716 0.153
46.0821 0.204
46.0926 0.133
46.1031 0.184
46.1136 0.214
46.1242 0.153
46.1347 0.174
46.1452 0.296
46.1557 0.235
46.1663 0.255
46.1768 0.327
46.1873 0.296
46.1978 0.245
46.2083 0.235
46.2189 0.266
46.2294 0.306
46.2399 0.245
46.2504 0.225
46.2610 0.419
46.2715 0.306
46.2820 0.347
46.2925 0.276
46.3030 0.439
46.3136 0.378
46.3241 0.449
46.3346 0.419
46.3451 0.500
46.3557 0.480
46.3662 0.582
46.3767 0.490
46.3872 0.603
46.3978 0.419
46.4083 0.460
46.4188 0.429
46.4293 0.490
46.4398 0.347
46.4504 0.439
46.4609 0.357
46.4714 0.255
46.4819 0.429
46.4925 0.296
46.5030 0.296
46.5135 0.337
46.5240 0.378
46.5345 0.306
46.5451 0.276
46.5556 0.184
46.5661 0.225
46.5766 0.214
46.5872 0.204
46.5977 0.143
46.6082 0.163
46.6187 0.184
46.6292 0.235
46.6398 0.174
46.6503 0.194
46.6608 0.245
46.6713 0.266
46.6819 0.174
46.6924 0.194
46.7029 0.306
46.7134 0.194
46.7240 0.174
46.7345 0.266
46.7450 0.235
46.7555 0.204
46.7660 0.225
46.7766 0.143
46.7871 0.184
46.7976 0.143
46.8081 0.174
46.8187 0.204
46.8292 0.153
46.8397 0.255
46.8502 0.266
46.8607 0.204
46.8713 0.153
46.8818 0.153
46.8923 0.102
46.9028 0.204
46.9134 0.204
46.9239 0.204
46.9344 0.143
46.9449 0.153
46.9555 0.153
46.9660 0.194
46.9765 0.143
46.9870 0.123
46.9975 0.204
47.0081 0.225
47.0186 0.184
47.0291 0.204
47.0396 0.133
47.0502 0.255
47.0607 0.204
47.0712 0.204
47.0817 0.194
47.0922 0.143
47.1028 0.133
47.1133 0.235
47.1238 0.174
47.1343 0.214
47.1449 0.214
47.1554 0.174
47.1659 0.153
47.1764 0.143
47.1869 0.163
47.1975 0.204
47.2080 0.276
47.2185 0.204
47.2290 0.286
47.2396 0.184
47.2501 0.214
47.2606 0.194
47.2711 0.153
47.2817 0.255
47.2922 0.194
47.3027 0.276
47.3132 0.174
47.3237 0.123
47.3343 0.204
47.3448 0.133
47.3553 0.163
47.3658 0.194
47.3764 0.214
47.3869 0.143
47.3974 0.143
47.4079 0.133
47.4184 0.163
47.4290 0.174
47.4395 0.153
47.4500 0.184
47.4605 0.123
47.4711 0.245
47.4816 0.163
47.4921 0.204
47.5026 0.143
47.5131 0.174
47.5237 0.194
47.5342 0.184
47.5447 0.174
47.5552 0.163
47.5658 0.194
47.5763 0.184
47.5868 0.184
47.5973 0.204
47.6079 0.204
47.6184 0.184
47.6289 0.163
47.6394 0.204
47.6499 0.153
47.6605 0.194
47.6710 0.123
47.6815 0.225
47.6920 0.163
47.7026 0.235
47.7131 0.143
47.7236 0.214
47.7341 0.255
47.7446 0.133
47.7552 0.194
47.7657 0.194
47.7762 0.204
47.7867 0.153
47.7973 0.174
47.8078 0.123
47.8183 0.153
47.8288 0.266
47.8394 0.163
47.8499 0.204
47.8604 0.306
47.8709 0.204
47.8814 0.245
47.8920 0.266
47.9025 0.245
47.9130 0.174
47.9235 0.245
47.9341 0.276
47.9446 0.266
47.9551 0.235
47.9656 0.204
47.9761 0.225
47.9867 0.255
47.9972 0.306
48.0077 0.429
48.0182 0.470
48.0288 0.347
48.0393 0.521
48.0498 0.480
48.0603 0.378
48.0708 0.419
48.0814 0.388
48.0919 0.582
48.1024 0.572
48.1129 0.357
48.1235 0.470
48.1340 0.327
48.1445 0.337
48.1550 0.347
48.1656 0.357
48.1761 0.368
48.1866 0.163
48.1971 0.357
48.2076 0.266
48.2182 0.184
48.2287 0.317
48.2392 0.204
48.2497 0.204
48.2603 0.266
48.2708 0.306
48.2813 0.133
48.2918 0.266
48.3023 0.225
48.3129 0.214
48.3234 0.204
48.3339 0.163
48.3444 0.266
48.3550 0.153
48.3655 0.214
48.3760 0.214
48.3865 0.174
48.3970 0.266
48.4076 0.255
48.4181 0.123
48.4286 0.143
48.4391 0.235
48.4497 0.153
48.4602 0.214
48.4707 0.245
48.4812 0.214
48.4918 0.235
48.5023 0.194
48.5128 0.245
48.5233 0.143
48.5338 0.235
48.5444 0.245
48.5549 0.174
48.5654 0.194
48.5759 0.225
48.5865 0.225
48.5970 0.225
48.6075 0.225
48.6180 0.266
48.6285 0.163
48.6391 0.204
48.6496 0.194
48.6601 0.286
48.6706 0.306
48.6812 0.225
48.6917 0.296
48.7022 0.255
48.7127 0.296
48.7233 0.327
48.7338 0.276
48.7443 0.194
48.7548 0.286
48.7653 0.214
48.7759 0.286
48.7864 0.255
48.7969 0.357
48.8074 0.255
48.8180 0.245
48.8285 0.296
48.8390 0.368
48.8495 0.245
48.8600 0.357
48.8706 0.327
48.8811 0.368
48.8916 0.357
48.9021 0.337
48.9127 0.388
48.9232 0.306
48.9337 0.419
48.9442 0.306
48.9547 0.368
48.9653 0.337
48.9758 0.408
48.9863 0.398
48.9968 0.388
49.0074 0.470
49.0179 0.551
49.0284 0.500
49.0389 0.623
49.0495 0.623
49.0600 0.500
49.0705 0.603
49.0810 0.766
49.0915 0.694
49.1021 0.766
49.1126 0.827
49.1231 1.001
49.1336 1.001
49.1442 1.031
49.1547 1.256
49.1652 1.389
49.1757 1.603
49.1862 1.542
49.1968 1.532
49.2073 1.481
49.2178 1.910
49.2283 2.042
49.2389 2.237
49.2494 2.288
49.2599 2.267
49.2704 1.981
49.2810 2.155
49.2915 1.971
49.3020 2.002
49.3125 2.012
49.3230 1.746
49.3336 1.593
49.3441 1.389
49.3546 1.328
49.3651 1.266
49.3757 1.389
49.3862 1.358
49.3967 1.031
49.4072 1.001
49.4177 0.756
49.4283 0.817
49.4388 0.837
49.4493 0.746
49.4598 0.725
49.4704 0.776
49.4809 0.643
49.4914 0.511
49.5019 0.572
49.5124 0.684
49.5230 0.633
49.5335 0.684
49.5440 0.490
49.5545 0.674
49.5651 0.521
49.5756 0.429
49.5861 0.408
49.5966 0.511
49.6072 0.408
49.6177 0.500
49.6282 0.490
49.6387 0.398
49.6492 0.439
49.6598 0.398
49.6703 0.388
49.6808 0.388
49.6913 0.245
49.7019 0.398
49.7124 0.388
49.7229 0.408
49.7334 0.296
49.7439 0.429
49.7545 0.276
49.7650 0.306
49.7755 0.276
49.7860 0.266
49.7966 0.317
49.8071 0.306
49.8176 0.378
49.8281 0.245
49.8386 0.306
49.8492 0.337
49.8597 0.327
49.8702 0.255
49.8807 0.255
49.8913 0.388
49.9018 0.357
49.9123 0.337
49.9228 0.449
49.9334 0.378
49.9439 0.408
49.9544 0.470
49.9649 0.408
49.9754 0.429
49.9860 0.531
49.9965 0.449
50.0070 0.439
50.0175 0.480
50.0281 0.623
50.0386 0.848
50.0491 0.715
50.0596 0.674
50.0701 0.694
50.0807 1.042
50.0912 0.991
50.1017 1.113
50.1122 0.888
50.1228 0.929
50.1333 1.021
50.1438 0.940
50.1543 1.164
50.1649 1.042
50.1754 1.052
50.1859 0.950
50.1964 1.205
50.2069 1.052
50.2175 1.154
50.2280 1.542
50.2385 1.317
50.2490 1.685
50.2596 1.746
50.2701 1.848
50.2806 1.328
50.2911 1.930
50.3016 2.094
50.3122 2.022
50.3227 2.063
50.3332 2.318
50.3437 1.991
50.3543 2.390
50.3648 2.461
50.3753 2.185
50.3858 2.155
50.3963 2.134
50.4069 2.288
50.4174 2.461
50.4279 2.063
50.4384 2.012
50.4490 1.920
50.4595 2.032
50.4700 1.879
50.4805 2.042
50.4911 1.736
50.5016 1.940
50.5121 1.757
50.5226 1.736
50.5331 1.583
50.5437 1.920
50.5542 1.705
50.5647 1.624
50.5752 1.787
50.5858 1.695
50.5963 1.797
50.6068 1.573
50.6173 1.481
50.6278 1.368
50.6384 1.471
50.6489 1.225
50.6594 1.052
50.6699 0.858
50.6805 1.195
50.6910 1.103
50.7015 0.929
50.7120 0.674
50.7225 0.643
50.7331 0.725
50.7436 0.643
50.7541 0.582
50.7646 0.541
50.7752 0.449
50.7857 0.470
50.7962 0.521
50.8067 0.531
50.8173 0.296
50.8278 0.378
50.8383 0.378
50.8488 0.408
50.8593 0.347
50.8699 0.296
50.8804 0.388
50.8909 0.327
50.9014 0.357
50.9120 0.317
50.9225 0.286
50.9330 0.255
50.9435 0.286
50.9540 0.286
50.9646 0.317
50.9751 0.276
50.9856 0.194
50.9961 0.214
51.0067 0.225
51.0172 0.276
51.0277 0.266
51.0382 0.194
51.0488 0.174
51.0593 0.357
51.0698 0.296
51.0803 0.225
51.0908 0.245
51.1014 0.214
51.1119 0.214
51.1224 0.306
51.1329 0.194
51.1435 0.204
51.1540 0.276
51.1645 0.266
51.1750 0.337
51.1855 0.225
51.1961 0.214
51.2066 0.133
51.2171 0.184
51.2276 0.214
51.2382 0.255
51.2487 0.184
51.2592 0.276
51.2697 0.255
51.2802 0.245
51.2908 0.235
51.3013 0.276
51.3118 0.184
51.3223 0.184
51.3329 0.194
51.3434 0.214
51.3539 0.153
51.3644 0.214
51.3750 0.143
51.3855 0.266
51.3960 0.276
51.4065 0.245
51.4170 0.235
51.4276 0.266
51.4381 0.184
51.4486 0.245
51.4591 0.214
51.4697 0.174
51.4802 0.337
51.4907 0.266
51.5012 0.143
51.5117 0.194
51.5223 0.214
51.5328 0.235
51.5433 0.174
51.5538 0.214
51.5644 0.163
51.5749 0.286
51.5854 0.204
51.5959 0.225
51.6064 0.184
51.6170 0.174
51.6275 0.153
51.6380 0.174
51.6485 0.143
51.6591 0.225
51.6696 0.204
51.6801 0.153
51.6906 0.306
51.7012 0.306
51.7117 0.306
51.7222 0.296
51.7327 0.235
51.7432 0.286
51.7538 0.296
51.7643 0.214
51.7748 0.204
51.7853 0.184
51.7959 0.255
51.8064 0.276
51.8169 0.194
51.8274 0.123
51.8379 0.276
51.8485 0.235
51.8590 0.214
51.8695 0.327
51.8800 0.245
51.8906 0.266
51.9011 0.306
51.9116 0.296
51.9221 0.255
51.9327 0.276
51.9432 0.225
51.9537 0.184
51.9642 0.286
51.9747 0.163
51.9853 0.296
51.9958 0.327
52.0063 0.439
52.0168 0.419
52.0274 0.347
52.0379 0.133
52.0484 0.306
52.0589 0.337
52.0694 0.408
52.0800 0.470
52.0905 0.398
52.1010 0.470
52.1115 0.490
52.1221 0.306
52.1326 0.378
52.1431 0.439
52.1536 0.531
52.1641 0.449
52.1747 0.368
52.1852 0.551
52.1957 0.480
52.2062 0.633
52.2168 0.694
52.2273 0.572
52.2378 0.531
52.2483 0.551
52.2589 0.878
52.2694 0.797
52.2799 0.725
52.2904 1.103
52.3009 0.909
52.3115 0.991
52.3220 1.154
52.3325 1.317
52.3430 1.399
52.3536 1.450
52.3641 1.757
52.3746 1.910
52.3851 1.818
52.3956 2.063
52.4062 2.328
52.4167 2.625
52.4272 2.972
52.4377 3.043
52.4483 3.258
52.4588 3.411
52.4693 3.891
52.4798 4.555
52.4904 4.565
52.5009 5.086
52.5114 6.148
52.5219 5.750
52.5324 5.729
52.5430 5.944
52.5535 6.577
52.5640 6.250
52.5745 6.076
52.5851 6.281
52.5956 5.893
52.6061 5.494
52.6166 5.596
52.6271 4.677
52.6377 4.963
52.6482 4.442
52.6587 4.391
52.6692 4.218
52.6798 3.574
52.6903 3.687
52.7008 3.401
52.7113 3.166
52.7218 3.115
52.7324 2.859
52.7429 2.686
52.7534 2.359
52.7639 2.339
52.7745 2.543
52.7850 2.114
52.7955 2.237
52.8060 2.012
52.8166 2.073
52.8271 1.808
52.8376 1.787
52.8481 1.675
52.8586 1.879
52.8692 1.317
52.8797 1.573
52.8902 1.368
52.9007 1.338
52.9113 1.144
52.9218 0.950
52.9323 1.083
52.9428 1.134
52.9533 0.797
52.9639 0.797
52.9744 0.797
52.9849 0.756
52.9954 0.664
53.0060 0.715
53.0165 0.674
53.0270 0.664
53.0375 0.592
53.0480 0.562
53.0586 0.521
53.0691 0.480
53.0796 0.480
53.0901 0.490
53.1007 0.582
53.1112 0.541
53.1217 0.511
53.1322 0.674
53.1428 0.460
53.1533 0.480
53.1638 0.654
53.1743 0.603
53.1848 0.531
53.1954 0.531
53.2059 0.603
53.2164 0.408
53.2269 0.388
53.2375 0.327
53.2480 0.419
53.2585 0.378
53.2690 0.378
53.2795 0.419
53.2901 0.286
53.3006 0.388
53.3111 0.429
53.3216 0.286
53.3322 0.266
53.3427 0.337
53.3532 0.327
53.3637 0.266
53.3743 0.286
53.3848 0.255
53.3953 0.306
53.4058 0.286
53.4163 0.327
53.4269 0.368
53.4374 0.327
53.4479 0.225
53.4584 0.266
53.4690 0.204
53.4795 0.255
53.4900 0.286
53.5005 0.266
53.5110 0.296
53.5216 0.255
53.5321 0.194
53.5426 0.163
53.5531 0.255
53.5637 0.245
53.5742 0.174
53.5847 0.225
53.5952 0.337
53.6057 0.184
53.6163 0.153
53.6268 0.214
53.6373 0.153
53.6478 0.174
53.6584 0.153
53.6689 0.245
53.6794 0.225
53.6899 0.143
53.7005 0.204
53.7110 0.153
53.7215 0.235
53.7320 0.235
53.7425 0.317
53.7531 0.245
53.7636 0.317
53.7741 0.204
53.7846 0.266
53.7952 0.204
53.8057 0.296
53.8162 0.204
53.8267 0.174
53.8372 0.174
53.8478 0.266
53.8583 0.153
53.8688 0.143
53.8793 0.337
53.8899 0.184
53.9004 0.235
53.9109 0.153
53.9214 0.286
53.9319 0.286
53.9425 0.143
53.9530 0.204
53.9635 0.225
53.9740 0.255
53.9846 0.184
53.9951 0.296
54.0056 0.163
54.0161 0.214
54.0267 0.163
54.0372 0.174
54.0477 0.266
54.0582 0.184
54.0687 0.214
54.0793 0.255
54.0898 0.214
54.1003 0.204
54.1108 0.245
54.1214 0.184
54.1319 0.194
54.1424 0.235
54.1529 0.184
54.1634 0.163
54.1740 0.163
54.1845 0.235
54.1950 0.214
54.2055 0.225
54.2161 0.225
54.2266 0.174
54.2371 0.296
54.2476 0.174
54.2582 0.163
54.2687 0.235
54.2792 0.225
54.2897 0.235
54.3002 0.214
54.3108 0.153
54.3213 0.214
54.3318 0.266
54.3423 0.225
54.3529 0.235
54.3634 0.296
54.3739 0.225
54.3844 0.225
54.3949 0.266
54.4055 0.204
54.4160 0.204
54.4265 0.286
54.4370 0.225
54.4476 0.245
54.4581 0.194
54.4686 0.276
54.4791 0.276
54.4896 0.245
54.5002 0.317
54.5107 0.286
54.5212 0.296
54.5317 0.194
54.5423 0.327
54.5528 0.306
54.5633 0.347
54.5738 0.347
54.5844 0.296
54.5949 0.276
54.6054 0.235
54.6159 0.449
54.6264 0.337
54.6370 0.347
54.6475 0.276
54.6580 0.368
54.6685 0.398
54.6791 0.429
54.6896 0.368
54.7001 0.470
54.7106 0.531
54.7211 0.378
54.7317 0.511
54.7422 0.429
54.7527 0.664
54.7632 0.572
54.7738 0.592
54.7843 0.735
54.7948 0.643
54.8053 0.746
54.8158 0.909
54.8264 1.001
54.8369 0.980
54.8474 1.185
54.8579 1.185
54.8685 1.460
54.8790 1.287
54.8895 1.614
54.9000 1.736
54.9106 1.940
54.9211 1.981
54.9316 1.961
54.9421 2.349
54.9526 2.614
54.9632 2.655
54.9737 3.023
54.9842 2.614
54.9947 2.849
55.0053 2.768
55.0158 2.471
55.0263 2.839
55.0368 2.502
55.0473 2.328
55.0579 2.410
55.0684 2.226
55.0789 1.797
55.0894 1.808
55.1000 1.726
55.1105 1.348
55.1210 1.532
55.1315 1.368
55.1421 1.399
55.1526 1.256
55.1631 0.960
55.1736 1.225
55.1841 0.929
55.1947 1.103
55.2052 1.103
55.2157 0.960
55.2262 0.919
55.2368 1.052
55.2473 0.848
55.2578 0.776
55.2683 0.878
55.2788 1.093
55.2894 1.062
55.2999 1.062
55.3104 1.011
55.3209 1.021
55.3315 1.103
55.3420 1.277
55.3525 1.266
55.3630 1.450
55.3735 1.563
55.3841 1.951
55.3946 1.889
55.4051 2.267
55.4156 2.226
55.4262 2.359
55.4367 2.757
55.4472 2.778
55.4577 3.237
55.4683 3.166
55.4788 3.391
55.4893 3.339
55.4998 3.350
55.5103 3.196
55.5209 3.472
55.5314 3.002
55.5419 2.890
55.5524 2.839
55.5630 2.543
55.5735 2.237
55.5840 2.124
55.5945 1.767
55.6050 1.563
55.6156 1.440
55.6261 1.563
55.6366 1.358
55.6471 1.225
55.6577 1.144
55.6682 0.970
55.6787 0.980
55.6892 0.868
55.6998 1.021
55.7103 0.797
55.7208 0.776
55.7313 0.674
55.7418 0.705
55.7524 0.664
55.7629 0.735
55.7734 0.643
55.7839 0.654
55.7945 0.551
55.8050 0.449
55.8155 0.439
55.8260 0.521
55.8365 0.592
55.8471 0.500
55.8576 0.429
55.8681 0.398
55.8786 0.398
55.8892 0.317
55.8997 0.388
55.9102 0.398
55.9207 0.245
55.9312 0.398
55.9418 0.378
55.9523 0.235
55.9628 0.388
55.9733 0.337
55.9839 0.439
55.9944 0.357
56.0049 0.235
56.0154 0.317
56.0260 0.408
56.0365 0.317
56.0470 0.306
56.0575 0.378
56.0680 0.286
56.0786 0.255
56.0891 0.255
56.0996 0.347
56.1101 0.368
56.1207 0.317
56.1312 0.214
56.1417 0.214
56.1522 0.306
56.1627 0.255
56.1733 0.286
56.1838 0.235
56.1943 0.327
56.2048 0.266
56.2154 0.327
56.2259 0.347
56.2364 0.347
56.2469 0.286
56.2574 0.347
56.2680 0.408
56.2785 0.388
56.2890 0.347
56.2995 0.398
56.3101 0.337
56.3206 0.327
56.3311 0.541
56.3416 0.541
56.3522 0.419
56.3627 0.470
56.3732 0.439
56.3837 0.531
56.3942 0.572
56.4048 0.603
56.4153 0.756
56.4258 0.705
56.4363 0.643
56.4469 0.848
56.4574 0.674
56.4679 0.786
56.4784 0.694
56.4889 0.786
56.4995 1.083
56.5100 1.123
56.5205 1.246
56.5310 1.297
56.5416 1.317
56.5521 1.266
56.5626 1.420
56.5731 1.583
56.5837 1.951
56.5942 1.818
56.6047 2.165
56.6152 2.512
56.6257 2.431
56.6363 2.747
56.6468 2.676
56.6573 3.145
56.6678 3.288
56.6784 3.248
56.6889 3.585
56.6994 3.380
56.7099 3.411
56.7204 3.380
56.7310 3.421
56.7415 3.176
56.7520 3.125
56.7625 2.921
56.7731 3.023
56.7836 2.471
56.7941 2.349
56.8046 1.920
56.8151 2.022
56.8257 1.940
56.8362 1.828
56.8467 1.491
56.8572 1.563
56.8678 1.379
56.8783 1.399
56.8888 1.052
56.8993 1.031
56.9099 1.113
56.9204 0.929
56.9309 0.878
56.9414 0.970
56.9519 0.725
56.9625 0.674
56.9730 0.613
56.9835 0.603
56.9940 0.654
57.0046 0.582
57.0151 0.521
57.0256 0.562
57.0361 0.511
57.0466 0.470
57.0572 0.500
57.0677 0.500
57.0782 0.470
57.0887 0.439
57.0993 0.439
57.1098 0.378
57.1203 0.327
57.1308 0.429
57.1413 0.306
57.1519 0.337
57.1624 0.317
57.1729 0.337
57.1834 0.276
57.1940 0.306
57.2045 0.398
57.2150 0.266
57.2255 0.255
57.2361 0.286
57.2466 0.225
57.2571 0.347
57.2676 0.317
57.2781 0.347
57.2887 0.317
57.2992 0.214
57.3097 0.368
57.3202 0.357
57.3308 0.439
57.3413 0.429
57.3518 0.296
57.3623 0.317
57.3728 0.306
57.3834 0.357
57.3939 0.357
57.4044 0.276
57.4149 0.388
57.4255 0.245
57.4360 0.266
57.4465 0.398
57.4570 0.572
57.4676 0.408
57.4781 0.388
57.4886 0.521
57.4991 0.449
57.5096 0.480
57.5202 0.419
57.5307 0.500
57.5412 0.551
57.5517 0.623
57.5623 0.531
57.5728 0.511
57.5833 0.572
57.5938 0.664
57.6043 0.531
57.6149 0.500
57.6254 0.460
57.6359 0.531
57.6464 0.429
57.6570 0.490
57.6675 0.480
57.6780 0.449
57.6885 0.449
57.6990 0.460
57.7096 0.419
57.7201 0.398
57.7306 0.327
57.7411 0.347
57.7517 0.276
57.7622 0.255
57.7727 0.296
57.7832 0.296
57.7938 0.276
57.8043 0.245
57.8148 0.276
57.8253 0.235
57.8358 0.245
57.8464 0.266
57.8569 0.337
57.8674 0.174
57.8779 0.296
57.8885 0.347
57.8990 0.347
57.9095 0.255
57.9200 0.357
57.9305 0.357
57.9411 0.347
57.9516 0.347
57.9621 0.398
57.9726 0.388
57.9832 0.429
57.9937 0.449
58.0042 0.357
58.0147 0.327
58.0252 0.460
58.0358 0.449
58.0463 0.439
58.0568 0.398
58.0673 0.368
58.0779 0.511
58.0884 0.541
58.0989 0.500
58.1094 0.470
58.1200 0.572
58.1305 0.511
58.1410 0.756
58.1515 0.654
58.1620 0.746
58.1726 0.827
58.1831 0.950
58.1936 0.848
58.2041 0.909
58.2147 1.052
58.2252 1.236
58.2357 1.389
58.2462 1.379
58.2567 1.501
58.2673 1.256
58.2778 1.532
58.2883 1.379
58.2988 1.583
58.3094 1.583
58.3199 1.930
58.3304 2.002
58.3409 1.940
58.3515 2.094
58.3620 1.828
58.3725 1.828
58.3830 1.675
58.3935 1.685
58.4041 1.389
58.4146 1.583
58.4251 1.287
58.4356 1.348
58.4462 1.205
58.4567 1.083
58.4672 1.185
58.4777 0.970
58.4882 0.940
58.4988 0.786
58.5093 0.715
58.5198 0.674
58.5303 0.715
58.5409 0.582
58.5514 0.613
58.5619 0.521
58.5724 0.603
58.5829 0.511
58.5935 0.521
58.6040 0.429
58.6145 0.429
58.6250 0.449
58.6356 0.449
58.6461 0.266
58.6566 0.296
58.6671 0.296
58.6777 0.357
58.6882 0.276
58.6987 0.317
58.7092 0.429
58.7197 0.317
58.7303 0.296
58.7408 0.214
58.7513 0.255
58.7618 0.327
58.7724 0.266
58.7829 0.214
58.7934 0.245
58.8039 0.184
58.8144 0.214
58.8250 0.266
58.8355 0.174
58.8460 0.174
58.8565 0.153
58.8671 0.184
58.8776 0.194
58.8881 0.296
58.8986 0.235
58.9091 0.184
58.9197 0.245
58.9302 0.174
58.9407 0.184
58.9512 0.245
58.9618 0.204
58.9723 0.255
58.9828 0.214
58.9933 0.204
59.0039 0.184
59.0144 0.184
59.0249 0.194
59.0354 0.174
59.0459 0.214
59.0565 0.276
59.0670 0.163
59.0775 0.276
59.0880 0.255
59.0986 0.296
59.1091 0.245
59.1196 0.245
59.1301 0.184
59.1406 0.276
59.1512 0.174
59.1617 0.276
59.1722 0.286
59.1827 0.235
59.1933 0.174
59.2038 0.235
59.2143 0.245
59.2248 0.163
59.2354 0.327
59.2459 0.225
59.2564 0.225
59.2669 0.204
59.2774 0.286
59.2880 0.235
59.2985 0.194
59.3090 0.184
59.3195 0.143
59.3301 0.194
59.3406 0.235
59.3511 0.225
59.3616 0.225
59.3721 0.174
59.3827 0.153
59.3932 0.235
59.4037 0.184
59.4142 0.255
59.4248 0.174
59.4353 0.245
59.4458 0.153
59.4563 0.133
59.4668 0.174
59.4774 0.194
59.4879 0.184
59.4984 0.184
59.5089 0.123
59.5195 0.143
59.5300 0.204
59.5405 0.214
59.5510 0.327
59.5616 0.214
59.5721 0.194
59.5826 0.214
59.5931 0.214
59.6036 0.235
59.6142 0.163
59.6247 0.306
59.6352 0.214
59.6457 0.286
59.6563 0.347
59.6668 0.255
59.6773 0.306
59.6878 0.235
59.6983 0.225
59.7089 0.235
59.7194 0.174
59.7299 0.286
59.7404 0.194
59.7510 0.225
59.7615 0.286
59.7720 0.153
59.7825 0.235
59.7931 0.133
59.8036 0.214
59.8141 0.214
59.8246 0.225
59.8351 0.266
59.8457 0.184
59.8562 0.184
59.8667 0.286
59.8772 0.266
59.8878 0.214
59.8983 0.204
59.9088 0.174
59.9193 0.174
59.9298 0.214
59.9404 0.204
59.9509 0.184
59.9614 0.255
59.9719 0.204
59.9825 0.153
59.9930 0.163
60.0035 0.123
60.0140 0.133
60.0245 0.204
60.0351 0.071
60.0456 0.123
60.0561 0.143
60.0666 0.153
60.0772 0.184
60.0877 0.163
60.0982 0.143
60.1087 0.204
60.1193 0.225
60.1298 0.204
60.1403 0.174
60.1508 0.204
60.1613 0.204
60.1719 0.174
60.1824 0.184
60.1929 0.143
60.2034 0.143
60.2140 0.163
60.2245 0.133
60.2350 0.194
60.2455 0.235
60.2560 0.133
60.2666 0.184
60.2771 0.133
60.2876 0.123
60.2981 0.174
60.3087 0.143
60.3192 0.153
60.3297 0.214
60.3402 0.143
60.3507 0.102
60.3613 0.204
60.3718 0.184
60.3823 0.123
60.3928 0.245
60.4034 0.184
60.4139 0.214
60.4244 0.204
60.4349 0.133
60.4455 0.163
60.4560 0.112
60.4665 0.214
60.4770 0.235
60.4875 0.153
60.4981 0.214
60.5086 0.184
60.5191 0.112
60.5296 0.174
60.5402 0.174
60.5507 0.143
60.5612 0.225
60.5717 0.112
60.5822 0.163
60.5928 0.163
60.6033 0.255
60.6138 0.194
60.6243 0.235
60.6349 0.123
60.6454 0.276
60.6559 0.184
60.6664 0.143
60.6770 0.133
60.6875 0.153
60.6980 0.133
60.7085 0.245
60.7190 0.255
60.7296 0.276
60.7401 0.194
60.7506 0.235
60.7611 0.184
60.7717 0.296
60.7822 0.184
60.7927 0.133
60.8032 0.245
60.8137 0.276
60.8243 0.235
60.8348 0.143
60.8453 0.143
60.8558 0.214
60.8664 0.153
60.8769 0.123
60.8874 0.266
60.8979 0.143
60.9084 0.194
60.9190 0.184
60.9295 0.245
60.9400 0.204
60.9505 0.184
60.9611 0.194
60.9716 0.153
60.9821 0.235
60.9926 0.266
61.0032 0.306
61.0137 0.306
61.0242 0.276
61.0347 0.194
61.0452 0.174
61.0558 0.174
61.0663 0.276
61.0768 0.317
61.0873 0.123
61.0979 0.306
61.1084 0.163
61.1189 0.214
61.1294 0.357
61.1399 0.286
61.1505 0.204
61.1610 0.286
61.1715 0.296
61.1820 0.276
61.1926 0.245
61.2031 0.266
61.2136 0.347
61.2241 0.276
61.2346 0.235
61.2452 0.306
61.2557 0.368
61.2662 0.368
61.2767 0.255
61.2873 0.327
61.2978 0.266
61.3083 0.378
61.3188 0.347
61.3294 0.368
61.3399 0.388
61.3504 0.368
61.3609 0.439
61.3714 0.388
61.3820 0.408
61.3925 0.490
61.4030 0.449
61.4135 0.429
61.4241 0.572
61.4346 0.521
61.4451 0.500
61.4556 0.694
61.4661 0.746
61.4767 0.766
61.4872 0.735
61.4977 0.888
61.5082 0.848
61.5188 0.848
61.5293 1.011
61.5398 1.011
61.5503 1.042
61.5609 1.215
61.5714 1.144
61.5819 1.164
61.5924 1.338
61.6029 1.399
61.6135 1.511
61.6240 1.328
61.6345 1.808
61.6450 1.879
61.6556 1.920
61.6661 1.797
61.6766 1.920
61.6871 2.226
61.6976 2.359
61.7082 2.625
61.7187 2.645
61.7292 2.788
61.7397 2.911
61.7503 3.094
61.7608 3.156
61.7713 3.554
61.7818 3.493
61.7923 4.044
61.8029 3.707
61.8134 3.728
61.8239 4.136
61.8344 3.758
61.8450 3.973
61.8555 3.748
61.8660 3.687
61.8765 4.024
61.8871 3.809
61.8976 3.738
61.9081 3.697
61.9186 3.135
61.9291 3.431
61.9397 3.380
61.9502 3.513
61.9607 3.646
61.9712 3.135
61.9818 3.094
61.9923 2.839
62.0028 3.217
62.0133 3.023
62.0238 2.982
62.0344 2.747
62.0449 3.350
62.0554 2.461
62.0659 2.859
62.0765 2.900
62.0870 2.962
62.0975 3.054
62.1080 2.931
62.1185 3.033
62.1291 2.849
62.1396 2.900
62.1501 2.768
62.1606 2.369
62.1712 2.890
62.1817 2.635
62.1922 2.206
62.2027 2.145
62.2133 2.155
62.2238 1.716
62.2343 1.767
62.2448 1.583
62.2553 1.634
62.2659 1.185
62.2764 1.225
62.2869 1.164
62.2974 1.164
62.3080 0.991
62.3185 0.929
62.3290 0.991
62.3395 0.756
62.3500 0.868
62.3606 0.786
62.3711 0.654
62.3816 0.756
62.3921 0.643
62.4027 0.521
62.4132 0.694
62.4237 0.541
62.4342 0.439
62.4448 0.531
62.4553 0.500
62.4658 0.460
62.4763 0.470
62.4868 0.429
62.4974 0.337
62.5079 0.449
62.5184 0.347
62.5289 0.266
62.5395 0.357
62.5500 0.327
62.5605 0.317
62.5710 0.480
62.5815 0.347
62.5921 0.347
62.6026 0.266
62.6131 0.255
62.6236 0.194
62.6342 0.245
62.6447 0.337
62.6552 0.266
62.6657 0.245
62.6762 0.266
62.6868 0.245
62.6973 0.225
62.7078 0.133
62.7183 0.266
62.7289 0.286
62.7394 0.214
62.7499 0.245
62.7604 0.214
62.7710 0.276
62.7815 0.204
62.7920 0.225
62.8025 0.184
62.8130 0.194
62.8236 0.184
62.8341 0.347
62.8446 0.327
62.8551 0.214
62.8657 0.266
62.8762 0.245
62.8867 0.194
62.8972 0.235
62.9077 0.235
62.9183 0.255
62.9288 0.133
62.9393 0.153
62.9498 0.143
62.9604 0.163
62.9709 0.194
62.9814 0.143
62.9919 0.204
63.0025 0.174
63.0130 0.235
63.0235 0.276
63.0340 0.204
63.0445 0.225
63.0551 0.266
63.0656 0.225
63.0761 0.184
63.0866 0.225
63.0972 0.255
63.1077 0.266
63.1182 0.143
63.1287 0.153
63.1392 0.225
63.1498 0.235
63.1603 0.143
63.1708 0.174
63.1813 0.194
63.1919 0.092
63.2024 0.133
63.2129 0.194
63.2234 0.153
63.2339 0.214
63.2445 0.266
63.2550 0.245
63.2655 0.133
63.2760 0.214
63.2866 0.194
63.2971 0.174
63.3076 0.163
63.3181 0.153
63.3287 0.143
63.3392 0.153
63.3497 0.153
63.3602 0.133
63.3707 0.184
63.3813 0.245
63.3918 0.143
63.4023 0.194
63.4128 0.194
63.4234 0.306
63.4339 0.266
63.4444 0.204
63.4549 0.153
63.4654 0.255
63.4760 0.245
63.4865 0.184
63.4970 0.174
63.5075 0.153
63.5181 0.163
63.5286 0.214
63.5391 0.255
63.5496 0.163
63.5601 0.317
63.5707 0.255
63.5812 0.163
63.5917 0.184
63.6022 0.184
63.6128 0.163
63.6233 0.153
63.6338 0.214
63.6443 0.296
63.6549 0.133
63.6654 0.204
63.6759 0.286
63.6864 0.214
63.6969 0.276
63.7075 0.225
63.7180 0.276
63.7285 0.245
63.7390 0.255
63.7496 0.296
63.7601 0.266
63.7706 0.266
63.7811 0.204
63.7916 0.276
63.8022 0.266
63.8127 0.388
63.8232 0.398
63.8337 0.276
63.8443 0.368
63.8548 0.337
63.8653 0.347
63.8758 0.327
63.8864 0.470
63.8969 0.327
63.9074 0.500
63.9179 0.357
63.9284 0.592
63.9390 0.531
63.9495 0.613
63.9600 0.643
63.9705 0.654
63.9811 0.562
63.9916 0.470
64.0021 0.684
64.0126 0.562
64.0231 0.633
64.0337 0.684
64.0442 0.776
64.0547 0.582
64.0652 0.654
64.0758 0.470
64.0863 0.490
64.0968 0.562
64.1073 0.582
64.1178 0.460
64.1284 0.470
64.1389 0.347
64.1494 0.419
64.1599 0.347
64.1705 0.286
64.1810 0.296
64.1915 0.368
64.2020 0.449
64.2126 0.266
64.2231 0.378
64.2336 0.378
64.2441 0.286
64.2546 0.255
64.2652 0.266
64.2757 0.357
64.2862 0.286
64.2967 0.225
64.3073 0.255
64.3178 0.225
64.3283 0.296
64.3388 0.133
64.3493 0.255
64.3599 0.163
64.3704 0.235
64.3809 0.194
64.3914 0.194
64.4020 0.255
64.4125 0.276
64.4230 0.153
64.4335 0.214
64.4440 0.194
64.4546 0.214
64.4651 0.194
64.4756 0.204
64.4861 0.214
64.4967 0.153
64.5072 0.112
64.5177 0.245
64.5282 0.214
64.5388 0.204
64.5493 0.317
64.5598 0.306
64.5703 0.214
64.5808 0.255
64.5914 0.174
64.6019 0.286
64.6124 0.286
64.6229 0.286
64.6335 0.204
64.6440 0.357
64.6545 0.225
64.6650 0.245
64.6755 0.317
64.6861 0.306
64.6966 0.327
64.7071 0.225
64.7176 0.245
64.7282 0.174
64.7387 0.266
64.7492 0.317
64.7597 0.306
64.7703 0.296
64.7808 0.214
64.7913 0.204
64.8018 0.245
64.8123 0.153
64.8229 0.225
64.8334 0.184
64.8439 0.245
64.8544 0.194
64.8650 0.123
64.8755 0.255
64.8860 0.286
64.8965 0.153
64.9070 0.255
64.9176 0.225
64.9281 0.174
64.9386 0.174
64.9491 0.286
64.9597 0.184
64.9702 0.163
64.9807 0.194
64.9912 0.204
65.0017 0.174
65.0123 0.225
65.0228 0.184
65.0333 0.194
65.0438 0.133
65.0544 0.153
65.0649 0.225
65.0754 0.235
65.0859 0.214
65.0965 0.143
65.1070 0.184
65.1175 0.286
65.1280 0.225
65.1385 0.204
65.1491 0.163
65.1596 0.123
65.1701 0.184
65.1806 0.214
65.1912 0.204
65.2017 0.123
65.2122 0.174
65.2227 0.194
65.2332 0.194
65.2438 0.255
65.2543 0.194
65.2648 0.204
65.2753 0.225
65.2859 0.204
65.2964 0.204
65.3069 0.255
65.3174 0.245
65.3279 0.204
65.3385 0.225
65.3490 0.245
65.3595 0.337
65.3700 0.255
65.3806 0.245
65.3911 0.296
65.4016 0.306
65.4121 0.255
65.4227 0.296
65.4332 0.255
65.4437 0.245
65.4542 0.276
65.4647 0.327
65.4753 0.337
65.4858 0.286
65.4963 0.398
65.5068 0.214
65.5174 0.235
65.5279 0.306
65.5384 0.317
65.5489 0.184
65.5594 0.255
65.5700 0.255
65.5805 0.276
65.5910 0.317
65.6015 0.266
65.6121 0.214
65.6226 0.255
65.6331 0.337
65.6436 0.276
65.6542 0.306
65.6647 0.286
65.6752 0.163
65.6857 0.286
65.6962 0.214
65.7068 0.337
65.7173 0.225
65.7278 0.327
65.7383 0.337
65.7489 0.245
65.7594 0.306
65.7699 0.255
65.7804 0.286
65.7909 0.296
65.8015 0.255
65.8120 0.449
65.8225 0.419
65.8330 0.480
65.8436 0.470
65.8541 0.347
65.8646 0.460
65.8751 0.449
65.8856 0.582
65.8962 0.562
65.9067 0.531
65.9172 0.419
65.9277 0.664
65.9383 0.643
65.9488 0.592
65.9593 0.582
65.9698 0.511
65.9804 0.654
65.9909 0.633
66.0014 0.541
66.0119 0.429
66.0224 0.541
66.0330 0.460
66.0435 0.694
66.0540 0.705
66.0645 0.623
66.0751 0.643
66.0856 0.500
66.0961 0.470
66.1066 0.480
66.1171 0.429
66.1277 0.603
66.1382 0.582
66.1487 0.603
66.1592 0.572
66.1698 0.603
66.1803 0.664
66.1908 0.613
66.2013 0.674
66.2119 0.664
66.2224 0.531
66.2329 0.868
66.2434 0.950
66.2539 0.807
66.2645 0.909
66.2750 0.980
66.2855 1.042
66.2960 0.960
66.3066 1.042
66.3171 1.174
66.3276 1.042
66.3381 0.960
66.3486 1.062
66.3592 1.134
66.3697 1.215
66.3802 1.052
66.3907 1.154
66.4013 1.164
66.4118 1.164
66.4223 0.909
66.4328 0.705
66.4433 0.766
66.4539 0.725
66.4644 0.715
66.4749 0.684
66.4854 0.531
66.4960 0.511
66.5065 0.694
66.5170 0.531
66.5275 0.541
66.5381 0.449
66.5486 0.480
66.5591 0.521
66.5696 0.511
66.5801 0.460
66.5907 0.306
66.6012 0.378
66.6117 0.408
66.6222 0.419
66.6328 0.378
66.6433 0.327
66.6538 0.398
66.6643 0.419
66.6748 0.296
66.6854 0.266
66.6959 0.337
66.7064 0.296
66.7169 0.276
66.7275 0.317
66.7380 0.306
66.7485 0.286
66.7590 0.255
66.7695 0.174
66.7801 0.194
66.7906 0.245
66.8011 0.296
66.8116 0.286
66.8222 0.225
66.8327 0.235
66.8432 0.153
66.8537 0.174
66.8643 0.266
66.8748 0.235
66.8853 0.184
66.8958 0.347
66.9063 0.214
66.9169 0.225
66.9274 0.286
66.9379 0.184
66.9484 0.204
66.9590 0.225
66.9695 0.255
66.9800 0.143
66.9905 0.235
67.0010 0.286
67.0116 0.184
67.0221 0.235
67.0326 0.276
67.0431 0.347
67.0537 0.357
67.0642 0.327
67.0747 0.266
67.0852 0.296
67.0958 0.306
67.1063 0.296
67.1168 0.357
67.1273 0.276
67.1378 0.429
67.1484 0.255
67.1589 0.419
67.1694 0.388
67.1799 0.398
67.1905 0.317
67.2010 0.337
67.2115 0.398
67.2220 0.521
67.2325 0.449
67.2431 0.531
67.2536 0.429
67.2641 0.511
67.2746 0.531
67.2852 0.603
67.2957 0.572
67.3062 0.603
67.3167 0.746
67.3272 0.603
67.3378 0.654
67.3483 0.633
67.3588 0.776
67.3693 0.807
67.3799 0.674
67.3904 0.766
67.4009 0.837
67.4114 0.684
67.4220 0.705
67.4325 0.929
67.4430 0.919
67.4535 0.899
67.4640 0.786
67.4746 0.776
67.4851 1.103
67.4956 0.888
67.5061 0.940
67.5167 0.837
67.5272 0.878
67.5377 0.950
67.5482 0.970
67.5587 1.134
67.5693 0.797
67.5798 0.756
67.5903 0.766
67.6008 0.817
67.6114 0.551
67.6219 0.582
67.6324 0.715
67.6429 0.633
67.6534 0.490
67.6640 0.582
67.6745 0.439
67.6850 0.357
67.6955 0.357
67.7061 0.357
67.7166 0.511
67.7271 0.408
67.7376 0.449
67.7482 0.398
67.7587 0.306
67.7692 0.347
67.7797 0.204
67.7902 0.266
67.8008 0.398
67.8113 0.357
67.8218 0.368
67.8323 0.245
67.8429 0.317
67.8534 0.337
67.8639 0.388
67.8744 0.398
67.8849 0.317
67.8955 0.337
67.9060 0.327
67.9165 0.296
67.9270 0.337
67.9376 0.408
67.9481 0.347
67.9586 0.306
67.9691 0.276
67.9797 0.296
67.9902 0.419
68.0007 0.429
68.0112 0.347
68.0217 0.337
68.0323 0.317
68.0428 0.368
68.0533 0.419
68.0638 0.357
68.0744 0.368
68.0849 0.551
68.0954 0.347
68.1059 0.388
68.1164 0.439
68.1270 0.347
68.1375 0.449
68.1480 0.347
68.1585 0.480
68.1691 0.327
68.1796 0.368
68.1901 0.470
68.2006 0.398
68.2111 0.388
68.2217 0.460
68.2322 0.521
68.2427 0.347
68.2532 0.368
68.2638 0.439
68.2743 0.347
68.2848 0.419
68.2953 0.470
68.3059 0.460
68.3164 0.419
68.3269 0.419
68.3374 0.378
68.3479 0.347
68.3585 0.368
68.3690 0.388
68.3795 0.480
68.3900 0.286
68.4006 0.306
68.4111 0.388
68.4216 0.327
68.4321 0.327
68.4426 0.378
68.4532 0.317
68.4637 0.266
68.4742 0.357
68.4847 0.286
68.4953 0.327
68.5058 0.317
68.5163 0.378
68.5268 0.225
68.5373 0.276
68.5479 0.286
68.5584 0.194
68.5689 0.255
68.5794 0.204
68.5900 0.266
68.6005 0.214
68.6110 0.163
68.6215 0.255
68.6321 0.184
68.6426 0.245
68.6531 0.255
68.6636 0.347
68.6741 0.214
68.6847 0.245
68.6952 0.194
68.7057 0.133
68.7162 0.204
68.7268 0.225
68.7373 0.204
68.7478 0.184
68.7583 0.225
68.7688 0.214
68.7794 0.153
68.7899 0.184
68.8004 0.184
68.8109 0.163
68.8215 0.184
68.8320 0.235
68.8425 0.327
68.8530 0.102
68.8636 0.235
68.8741 0.225
68.8846 0.194
68.8951 0.123
68.9056 0.286
68.9162 0.327
68.9267 0.184
68.9372 0.286
68.9477 0.204
68.9583 0.174
68.9688 0.255
68.9793 0.204
68.9898 0.133
69.0003 0.123
69.0109 0.194
69.0214 0.174
69.0319 0.174
69.0424 0.225
69.0530 0.225
69.0635 0.143
69.0740 0.174
69.0845 0.184
69.0950 0.204
69.1056 0.245
69.1161 0.194
69.1266 0.235
69.1371 0.163
69.1477 0.174
69.1582 0.286
69.1687 0.214
69.1792 0.245
69.1898 0.266
69.2003 0.347
69.2108 0.214
69.2213 0.276
69.2318 0.266
69.2424 0.225
69.2529 0.327
69.2634 0.327
69.2739 0.337
69.2845 0.408
69.2950 0.511
69.3055 0.266
69.3160 0.439
69.3265 0.388
69.3371 0.521
69.3476 0.368
69.3581 0.613
69.3686 0.562
69.3792 0.490
69.3897 0.613
69.4002 0.562
69.4107 0.460
69.4212 0.633
69.4318 0.541
69.4423 0.582
69.4528 0.500
69.4633 0.613
69.4739 0.521
69.4844 0.664
69.4949 0.521
69.5054 0.511
69.5160 0.398
69.5265 0.521
69.5370 0.582
69.5475 0.511
69.5580 0.490
69.5686 0.419
69.5791 0.378
69.5896 0.388
69.6001 0.572
69.6107 0.357
69.6212 0.439
69.6317 0.337
69.6422 0.511
69.6527 0.408
69.6633 0.245
69.6738 0.347
69.6843 0.225
69.6948 0.266
69.7054 0.327
69.7159 0.347
69.7264 0.337
69.7369 0.327
69.7475 0.286
69.7580 0.317
69.7685 0.388
69.7790 0.337
69.7895 0.327
69.8001 0.337
69.8106 0.255
69.8211 0.419
69.8316 0.419
69.8422 0.357
69.8527 0.429
69.8632 0.337
69.8737 0.460
69.8842 0.347
69.8948 0.480
69.9053 0.408
69.9158 0.378
69.9263 0.592
69.9369 0.500
69.9474 0.470
69.9579 0.613
69.9684 0.500
69.9789 0.511
69.9895 0.613
70.0000 0.715
70.0105 0.919
70.0210 0.848
70.0316 0.909
70.0421 0.868
70.0526 1.011
70.0631 1.093
70.0737 1.215
70.0842 1.154
70.0947 1.348
70.1052 1.450
70.1157 1.174
70.1263 1.358
70.1368 1.614
70.1473 1.675
70.1578 1.624
70.1684 1.838
70.1789 1.603
70.1894 1.665
70.1999 1.552
70.2104 1.307
70.2210 1.828
70.2315 1.644
70.2420 1.358
70.2525 1.511
70.2631 1.236
70.2736 1.225
70.2841 1.021
70.2946 0.980
70.3052 1.001
70.3157 0.909
70.3262 0.970
70.3367 0.899
70.3472 0.715
70.3578 0.756
70.3683 0.827
70.3788 0.776
70.3893 0.633
70.3999 0.654
70.4104 0.541
70.4209 0.633
70.4314 0.623
70.4419 0.531
70.4525 0.551
70.4630 0.500
70.4735 0.490
70.4840 0.439
70.4946 0.388
70.5051 0.460
70.5156 0.429
70.5261 0.357
70.5366 0.439
70.5472 0.276
70.5577 0.347
70.5682 0.266
70.5787 0.398
70.5893 0.266
70.5998 0.327
70.6103 0.286
70.6208 0.276
70.6314 0.255
70.6419 0.337
70.6524 0.286
70.6629 0.235
70.6734 0.214
70.6840 0.184
70.6945 0.266
70.7050 0.337
70.7155 0.245
70.7261 0.266
70.7366 0.255
70.7471 0.266
70.7576 0.245
70.7681 0.255
70.7787 0.123
70.7892 0.276
70.7997 0.204
70.8102 0.225
70.8208 0.235
70.8313 0.235
70.8418 0.286
70.8523 0.255
70.8628 0.174
70.8734 0.204
70.8839 0.235
70.8944 0.214
70.9049 0.235
70.9155 0.255
70.9260 0.225
70.9365 0.276
70.9470 0.306
70.9576 0.266
70.9681 0.112
70.9786 0.214
70.9891 0.194
70.9996 0.174
71.0102 0.296
71.0207 0.245
71.0312 0.174
71.0417 0.255
71.0523 0.306
71.0628 0.214
71.0733 0.184
71.0838 0.184
71.0943 0.194
71.1049 0.266
71.1154 0.286
71.1259 0.255
71.1364 0.194
71.1470 0.286
71.1575 0.296
71.1680 0.276
71.1785 0.296
71.1891 0.296
71.1996 0.327
71.2101 0.214
71.2206 0.419
71.2311 0.347
71.2417 0.317
71.2522 0.286
71.2627 0.327
71.2732 0.327
71.2838 0.368
71.2943 0.327
71.3048 0.439
71.3153 0.449
71.3258 0.490
71.3364 0.378
71.3469 0.449
71.3574 0.398
71.3679 0.603
71.3785 0.429
71.3890 0.511
71.3995 0.531
71.4100 0.623
71.4205 0.623
71.4311 0.654
71.4416 0.694
71.4521 0.531
71.4626 0.725
71.4732 0.531
71.4837 0.511
71.4942 0.735
71.5047 0.449
71.5153 0.582
71.5258 0.562
71.5363 0.490
71.5468 0.674
71.5573 0.398
71.5679 0.521
71.5784 0.429
71.5889 0.521
71.5994 0.306
71.6100 0.317
71.6205 0.337
71.6310 0.347
71.6415 0.327
71.6520 0.347
71.6626 0.368
71.6731 0.511
71.6836 0.419
71.6941 0.357
71.7047 0.449
71.7152 0.337
71.7257 0.378
71.7362 0.378
71.7467 0.306
71.7573 0.398
71.7678 0.357
71.7783 0.408
71.7888 0.419
71.7994 0.327
71.8099 0.490
71.8204 0.551
71.8309 0.408
71.8415 0.490
71.8520 0.541
71.8625 0.603
71.8730 0.460
71.8835 0.562
71.8941 0.623
71.9046 0.664
71.9151 0.521
71.9256 0.613
71.9362 0.490
71.9467 0.572
71.9572 0.827
71.9677 0.551
71.9782 0.715
71.9888 0.654
71.9993 0.623
72.0098 0.633
72.0203 0.756
72.0309 0.562
72.0414 0.735
72.0519 0.756
72.0624 0.551
72.0730 0.776
72.0835 0.715
72.0940 0.582
72.1045 0.746
72.1150 0.613
72.1256 1.031
72.1361 0.960
72.1466 0.786
72.1571 1.001
72.1677 1.031
72.1782 1.021
72.1887 1.185
72.1992 0.899
72.2097 1.052
72.2203 0.940
72.2308 1.103
72.2413 1.185
72.2518 1.031
72.2624 1.287
72.2729 1.277
72.2834 1.409
72.2939 1.328
72.3044 1.420
72.3150 1.603
72.3255 1.307
72.3360 1.368
72.3465 1.389
72.3571 1.358
72.3676 1.348
72.3781 1.409
72.3886 1.379
72.3992 1.440
72.4097 1.368
72.4202 1.338
72.4307 1.368
72.4412 1.174
72.4518 1.123
72.4623 1.195
72.4728 1.123
72.4833 0.980
72.4939 0.929
72.5044 0.694
72.5149 0.827
72.5254 0.899
72.5359 0.746
72.5465 0.746
72.5570 0.511
72.5675 0.490
72.5780 0.735
72.5886 0.664
72.5991 0.439
72.6096 0.419
72.6201 0.480
72.6306 0.408
72.6412 0.521
72.6517 0.408
72.6622 0.357
72.6727 0.419
72.6833 0.286
72.6938 0.378
72.7043 0.388
72.7148 0.337
72.7254 0.266
72.7359 0.378
72.7464 0.276
72.7569 0.204
72.7674 0.266
72.7780 0.286
72.7885 0.214
72.7990 0.235
72.8095 0.194
72.8201 0.317
72.8306 0.286
72.8411 0.255
72.8516 0.276
72.8621 0.245
72.8727 0.276
72.8832 0.276
72.8937 0.123
72.9042 0.153
72.9148 0.245
72.9253 0.255
72.9358 0.214
72.9463 0.276
72.9569 0.306
72.9674 0.174
72.9779 0.214
72.9884 0.245
72.9989 0.225
73.0095 0.286
73.0200 0.317
73.0305 0.337
73.0410 0.214
73.0516 0.235
73.0621 0.235
73.0726 0.286
73.0831 0.235
73.0936 0.174
73.1042 0.204
73.1147 0.204
73.1252 0.174
73.1357 0.184
73.1463 0.133
73.1568 0.204
73.1673 0.276
73.1778 0.184
73.1883 0.255
73.1989 0.225
73.2094 0.163
73.2199 0.235
73.2304 0.184
73.2410 0.306
73.2515 0.245
73.2620 0.204
73.2725 0.153
73.2831 0.255
73.2936 0.286
73.3041 0.306
73.3146 0.337
73.3251 0.327
73.3357 0.317
73.3462 0.357
73.3567 0.337
73.3672 0.266
73.3778 0.368
73.3883 0.368
73.3988 0.337
73.4093 0.317
73.4198 0.368
73.4304 0.439
73.4409 0.296
73.4514 0.500
73.4619 0.541
73.4725 0.419
73.4830 0.541
73.4935 0.470
73.5040 0.460
73.5146 0.480
73.5251 0.664
73.5356 0.664
73.5461 0.674
73.5566 0.511
73.5672 0.582
73.5777 0.511
73.5882 0.398
73.5987 0.470
73.6093 0.357
73.6198 0.419
73.6303 0.439
73.6408 0.460
73.6513 0.388
73.6619 0.490
73.6724 0.368
73.6829 0.317
73.6934 0.296
73.7040 0.337
73.7145 0.245
73.7250 0.286
73.7355 0.337
73.7460 0.317
73.7566 0.286
73.7671 0.245
73.7776 0.337
73.7881 0.245
73.7987 0.276
73.8092 0.266
73.8197 0.204
73.8302 0.214
73.8408 0.163
73.8513 0.266
73.8618 0.276
73.8723 0.266
73.8828 0.225
73.8934 0.266
73.9039 0.296
73.9144 0.235
73.9249 0.194
73.9355 0.133
73.9460 0.143
73.9565 0.286
73.9670 0.245
73.9775 0.214
73.9881 0.276
73.9986 0.225
74.0091 0.235
74.0196 0.225
74.0302 0.225
74.0407 0.337
74.0512 0.296
74.0617 0.225
74.0722 0.296
74.0828 0.408
74.0933 0.378
74.1038 0.378
74.1143 0.225
74.1249 0.541
74.1354 0.378
74.1459 0.317
74.1564 0.429
74.1670 0.327
74.1775 0.317
74.1880 0.470
74.1985 0.480
74.2090 0.592
74.2196 0.633
74.2301 0.746
74.2406 0.694
74.2511 0.643
74.2617 0.582
74.2722 0.674
74.2827 0.878
74.2932 0.817
74.3037 0.888
74.3143 1.072
74.3248 1.134
74.3353 1.021
74.3458 1.123
74.3564 0.878
74.3669 1.317
74.3774 1.287
74.3879 1.297
74.3985 1.103
74.4090 1.164
74.4195 1.093
74.4300 0.848
74.4405 1.072
74.4511 1.052
74.4616 0.960
74.4721 0.827
74.4826 0.735
74.4932 0.746
74.5037 0.817
74.5142 0.725
74.5247 0.541
74.5352 0.592
74.5458 0.725
74.5563 0.551
74.5668 0.613
74.5773 0.429
74.5879 0.572
74.5984 0.439
74.6089 0.521
74.6194 0.368
74.6299 0.306
74.6405 0.541
74.6510 0.276
74.6615 0.368
74.6720 0.449
74.6826 0.388
74.6931 0.480
74.7036 0.398
74.7141 0.398
74.7247 0.337
74.7352 0.398
74.7457 0.327
74.7562 0.255
74.7667 0.194
74.7773 0.225
74.7878 0.255
74.7983 0.225
74.8088 0.306
74.8194 0.276
74.8299 0.214
74.8404 0.266
74.8509 0.235
74.8614 0.235
74.8720 0.255
74.8825 0.133
74.8930 0.255
74.9035 0.255
74.9141 0.235
74.9246 0.337
74.9351 0.245
74.9456 0.235
74.9561 0.357
74.9667 0.204
74.9772 0.245
74.9877 0.266
74.9982 0.317
75.0088 0.306
75.0193 0.235
75.0298 0.347
75.0403 0.531
75.0509 0.460
75.0614 0.398
75.0719 0.388
75.0824 0.286
75.0929 0.357
75.1035 0.378
75.1140 0.378
75.1245 0.378
75.1350 0.286
75.1456 0.480
75.1561 0.378
75.1666 0.398
75.1771 0.286
75.1876 0.419
75.1982 0.378
75.2087 0.286
75.2192 0.429
75.2297 0.378
75.2403 0.327
75.2508 0.306
75.2613 0.306
75.2718 0.235
75.2824 0.184
75.2929 0.327
75.3034 0.276
75.3139 0.317
75.3244 0.317
75.3350 0.317
75.3455 0.204
75.3560 0.204
75.3665 0.357
75.3771 0.419
75.3876 0.306
75.3981 0.276
75.4086 0.255
75.4191 0.225
75.4297 0.266
75.4402 0.184
75.4507 0.133
75.4612 0.357
75.4718 0.296
75.4823 0.286
75.4928 0.204
75.5033 0.276
75.5138 0.337
75.5244 0.276
75.5349 0.286
75.5454 0.306
75.5559 0.327
75.5665 0.225
75.5770 0.327
75.5875 0.368
75.5980 0.500
75.6086 0.266
75.6191 0.266
75.6296 0.357
75.6401 0.541
75.6506 0.378
75.6612 0.460
75.6717 0.286
75.6822 0.439
75.6927 0.419
75.7033 0.347
75.7138 0.419
75.7243 0.368
75.7348 0.347
75.7453 0.388
75.7559 0.378
75.7664 0.337
75.7769 0.347
75.7874 0.429
75.7980 0.357
75.8085 0.276
75.8190 0.511
75.8295 0.429
75.8400 0.357
75.8506 0.317
75.8611 0.398
75.8716 0.408
75.8821 0.306
75.8927 0.368
75.9032 0.419
75.9137 0.521
75.9242 0.337
75.9348 0.378
75.9453 0.388
75.9558 0.306
75.9663 0.337
75.9768 0.378
75.9874 0.398
75.9979 0.378
76.0084 0.214
76.0189 0.255
76.0295 0.235
76.0400 0.296
76.0505 0.286
76.0610 0.276
76.0715 0.296
76.0821 0.286
76.0926 0.296
76.1031 0.296
76.1136 0.429
76.1242 0.388
76.1347 0.439
76.1452 0.296
76.1557 0.235
76.1663 0.327
76.1768 0.429
76.1873 0.296
76.1978 0.408
76.2083 0.337
76.2189 0.327
76.2294 0.368
76.2399 0.357
76.2504 0.266
76.2610 0.276
76.2715 0.368
76.2820 0.357
76.2925 0.378
76.3030 0.357
76.3136 0.306
76.3241 0.266
76.3346 0.245
76.3451 0.184
76.3557 0.317
76.3662 0.255
76.3767 0.306
76.3872 0.184
76.3977 0.317
76.4083 0.266
76.4188 0.225
76.4293 0.204
76.4398 0.266
76.4504 0.255
76.4609 0.235
76.4714 0.133
76.4819 0.143
76.4925 0.174
76.5030 0.204
76.5135 0.133
76.5240 0.123
76.5345 0.204
76.5451 0.153
76.5556 0.163
76.5661 0.235
76.5766 0.225
76.5872 0.194
76.5977 0.133
76.6082 0.184
76.6187 0.123
76.6292 0.204
76.6398 0.163
76.6503 0.153
76.6608 0.174
76.6713 0.204
76.6819 0.102
76.6924 0.296
76.7029 0.153
76.7134 0.225
76.7240 0.163
76.7345 0.194
76.7450 0.163
76.7555 0.194
76.7660 0.235
76.7766 0.184
76.7871 0.163
76.7976 0.163
76.8081 0.214
76.8187 0.194
76.8292 0.153
76.8397 0.133
76.8502 0.143
76.8607 0.102
76.8713 0.184
76.8818 0.153
76.8923 0.194
76.9028 0.133
76.9134 0.123
76.9239 0.194
76.9344 0.153
76.9449 0.204
76.9554 0.245
76.9660 0.163
76.9765 0.163
76.9870 0.163
76.9975 0.204
77.0081 0.153
77.0186 0.143
77.0291 0.153
77.0396 0.286
77.0502 0.204
77.0607 0.194
77.0712 0.194
77.0817 0.133
77.0922 0.194
77.1028 0.112
77.1133 0.184
77.1238 0.194
77.1343 0.153
77.1449 0.204
77.1554 0.225
77.1659 0.184
77.1764 0.214
77.1869 0.225
77.1975 0.245
77.2080 0.174
77.2185 0.174
77.2290 0.194
77.2396 0.317
77.2501 0.245
77.2606 0.286
77.2711 0.235
77.2816 0.276
77.2922 0.276
77.3027 0.174
77.3132 0.204
77.3237 0.255
77.3343 0.214
77.3448 0.368
77.3553 0.306
77.3658 0.276
77.3764 0.266
77.3869 0.327
77.3974 0.163
77.4079 0.317
77.4184 0.266
77.4290 0.327
77.4395 0.306
77.4500 0.317
77.4605 0.408
77.4711 0.408
77.4816 0.398
77.4921 0.266
77.5026 0.357
77.5131 0.184
77.5237 0.398
77.5342 0.388
77.5447 0.408
77.5552 0.347
77.5658 0.286
77.5763 0.439
77.5868 0.449
77.5973 0.429
77.6079 0.460
77.6184 0.429
77.6289 0.521
77.6394 0.531
77.6499 0.470
77.6605 0.511
77.6710 0.419
77.6815 0.480
77.6920 0.592
77.7026 0.654
77.7131 0.776
77.7236 0.654
77.7341 0.797
77.7446 0.807
77.7552 0.756
77.7657 0.735
77.7762 0.725
77.7867 0.837
77.7973 0.694
77.8078 0.623
77.8183 0.735
77.8288 0.980
77.8393 0.705
77.8499 0.899
77.8604 0.797
77.8709 0.776
77.8814 0.991
77.8920 0.582
77.9025 0.766
77.9130 0.919
77.9235 0.837
77.9341 0.674
77.9446 0.582
77.9551 0.654
77.9656 0.776
77.9761 0.746
77.9867 0.868
77.9972 0.694
78.0077 0.786
78.0182 0.623
78.0288 0.541
78.0393 0.643
78.0498 0.715
78.0603 0.551
78.0708 0.623
78.0814 0.562
78.0919 0.541
78.1024 0.429
78.1129 0.603
78.1235 0.480
78.1340 0.592
78.1445 0.296
78.1550 0.449
78.1655 0.531
78.1761 0.357
78.1866 0.500
78.1971 0.480
78.2076 0.460
78.2182 0.296
78.2287 0.398
78.2392 0.357
78.2497 0.286
78.2603 0.347
78.2708 0.388
78.2813 0.306
78.2918 0.266
78.3023 0.255
78.3129 0.317
78.3234 0.327
78.3339 0.296
78.3444 0.225
78.3550 0.225
78.3655 0.266
78.3760 0.276
78.3865 0.245
78.3970 0.286
78.4076 0.163
78.4181 0.255
78.4286 0.184
78.4391 0.286
78.4497 0.286
78.4602 0.245
78.4707 0.214
78.4812 0.194
78.4918 0.204
78.5023 0.225
78.5128 0.255
78.5233 0.133
78.5338 0.184
78.5444 0.184
78.5549 0.133
78.5654 0.153
78.5759 0.174
78.5865 0.214
78.5970 0.266
78.6075 0.245
78.6180 0.184
78.6285 0.163
78.6391 0.245
78.6496 0.153
78.6601 0.245
78.6706 0.123
78.6812 0.245
78.6917 0.133
78.7022 0.143
78.7127 0.163
78.7232 0.112
78.7338 0.194
78.7443 0.143
78.7548 0.184
78.7653 0.235
78.7759 0.133
78.7864 0.143
78.7969 0.153
78.8074 0.133
78.8180 0.112
78.8285 0.133
78.8390 0.102
78.8495 0.194
78.8600 0.112
78.8706 0.225
78.8811 0.123
78.8916 0.163
78.9021 0.184
78.9127 0.194
78.9232 0.112
78.9337 0.184
78.9442 0.163
78.9547 0.133
78.9653 0.174
78.9758 0.102
78.9863 0.133
78.9968 0.184
79.0074 0.194
79.0179 0.174
79.0284 0.092
79.0389 0.112
79.0494 0.082
79.0600 0.143
79.0705 0.143
79.0810 0.143
79.0915 0.255
79.1021 0.133
79.1126 0.184
79.1231 0.214
79.1336 0.184
79.1442 0.133
79.1547 0.163
79.1652 0.163
79.1757 0.112
79.1862 0.184
79.1968 0.102
79.2073 0.112
79.2178 0.082
79.2283 0.153
79.2389 0.133
79.2494 0.112
79.2599 0.163
79.2704 0.153
79.2809 0.102
79.2915 0.174
79.3020 0.143
79.3125 0.143
79.3230 0.102
79.3336 0.112
79.3441 0.112
79.3546 0.153
79.3651 0.143
79.3757 0.194
79.3862 0.133
79.3967 0.133
79.4072 0.123
79.4177 0.133
79.4283 0.133
79.4388 0.204
79.4493 0.174
79.4598 0.092
79.4704 0.112
79.4809 0.143
79.4914 0.184
79.5019 0.174
79.5124 0.235
79.5230 0.214
79.5335 0.102
79.5440 0.174
79.5545 0.174
79.5651 0.123
79.5756 0.153
79.5861 0.153
79.5966 0.174
79.6071 0.123
79.6177 0.102
79.6282 0.153
79.6387 0.092
79.6492 0.123
79.6598 0.112
79.6703 0.153
79.6808 0.153
79.6913 0.102
79.7019 0.174
79.7124 0.092
79.7229 0.194
79.7334 0.112
79.7439 0.143
79.7545 0.163
79.7650 0.235
79.7755 0.204
79.7860 0.133
79.7966 0.174
79.8071 0.143
79.8176 0.112
79.8281 0.174
79.8386 0.286
79.8492 0.143
79.8597 0.245
79.8702 0.174
79.8807 0.174
79.8913 0.184
79.9018 0.174
79.9123 0.276
79.9228 0.174
79.9333 0.174
79.9439 0.174
79.9544 0.235
79.9649 0.235
79.9754 0.255
79.9860 0.214
79.9965 0.204
80.0070 0.163
