10.0000 0.817
10.0105 0.797
10.0210 0.929
10.0316 0.980
10.0421 1.011
10.0526 0.899
10.0631 0.950
10.0737 0.858
10.0842 0.848
10.0947 0.929
10.1052 0.807
10.1157 0.991
10.1263 0.909
10.1368 0.970
10.1473 0.888
10.1578 0.970
10.1684 0.848
10.1789 0.991
10.1894 0.797
10.1999 0.909
10.2105 0.899
10.2210 0.980
10.2315 0.929
10.2420 1.072
10.2525 0.980
10.2631 0.746
10.2736 0.991
10.2841 0.991
10.2946 0.848
10.3052 0.929
10.3157 0.858
10.3262 0.694
10.3367 0.980
10.3472 0.919
10.3578 0.909
10.3683 0.868
10.3788 0.991
10.3893 0.940
10.3999 0.919
10.4104 1.031
10.4209 0.827
10.4314 0.929
10.4420 0.837
10.4525 0.940
10.4630 0.878
10.4735 0.950
10.4840 0.848
10.4946 0.919
10.5051 0.991
10.5156 0.837
10.5261 1.001
10.5367 0.950
10.5472 0.735
10.5577 0.776
10.5682 0.756
10.5787 0.991
10.5893 0.878
10.5998 0.991
10.6103 0.970
10.6208 1.001
10.6314 0.746
10.6419 0.797
10.6524 0.991
10.6629 0.807
10.6734 0.929
10.6840 0.674
10.6945 1.011
10.7050 0.715
10.7155 1.031
10.7261 0.848
10.7366 0.878
10.7471 0.746
10.7576 0.970
10.7682 0.837
10.7787 0.715
10.7892 0.868
10.7997 0.827
10.8102 0.909
10.8208 0.919
10.8313 0.786
10.8418 0.929
10.8523 0.766
10.8629 0.888
10.8734 0.817
10.8839 0.858
10.8944 0.848
10.9049 0.899
10.9155 0.797
10.9260 0.950
10.9365 0.950
10.9470 0.827
10.9576 0.776
10.9681 0.970
10.9786 0.725
10.9891 0.950
10.9996 0.868
11.0102 0.756
11.0207 0.919
11.0312 0.664
11.0417 1.021
11.0523 1.021
11.0628 0.817
11.0733 0.827
11.0838 0.980
11.0944 0.929
11.1049 0.899
11.1154 0.888
11.1259 0.694
11.1364 0.807
11.1470 0.858
11.1575 0.725
11.1680 0.848
11.1785 0.725
11.1891 0.807
11.1996 0.776
11.2101 0.848
11.2206 0.991
11.2311 0.858
11.2417 0.786
11.2522 0.909
11.2627 0.715
11.2732 0.756
11.2838 0.858
11.2943 0.766
11.3048 0.848
11.3153 0.766
11.3259 0.837
11.3364 0.878
11.3469 0.878
11.3574 0.613
11.3679 0.664
11.3785 0.776
11.3890 0.705
11.3995 0.909
11.4100 0.613
11.4206 0.797
11.4311 0.735
11.4416 0.776
11.4521 0.786
11.4626 0.827
11.4732 0.858
11.4837 0.940
11.4942 0.674
11.5047 0.715
11.5153 0.766
11.5258 0.746
11.5363 0.817
11.5468 0.756
11.5573 0.807
11.5679 0.705
11.5784 0.623
11.5889 0.878
11.5994 0.746
11.6100 0.797
11.6205 0.735
11.6310 0.664
11.6415 0.664
11.6521 0.817
11.6626 0.735
11.6731 0.705
11.6836 0.878
11.6941 0.725
11.7047 0.664
11.7152 0.746
11.7257 0.756
11.7362 0.735
11.7468 0.705
11.7573 0.909
11.7678 0.929
11.7783 0.868
11.7888 0.776
11.7994 0.715
11.8099 0.684
11.8204 0.776
11.8309 0.674
11.8415 0.919
11.8520 0.674
11.8625 0.776
11.8730 0.613
11.8835 0.551
11.8941 0.878
11.9046 0.858
11.9151 0.654
11.9256 0.756
11.9362 0.797
11.9467 0.613
11.9572 0.684
11.9677 0.817
11.9783 0.715
11.9888 0.766
11.9993 0.684
12.0098 0.970
12.0203 0.705
12.0309 0.878
12.0414 0.756
12.0519 0.694
12.0624 0.705
12.0730 0.725
12.0835 0.705
12.0940 0.643
12.1045 0.797
12.1150 0.725
12.1256 0.725
12.1361 0.888
12.1466 0.633
12.1571 0.899
12.1677 0.827
12.1782 0.643
12.1887 0.837
12.1992 0.654
12.2098 0.756
12.2203 0.776
12.2308 0.746
12.2413 0.694
12.2518 0.817
12.2624 0.603
12.2729 0.705
12.2834 0.827
12.2939 0.705
12.3045 0.746
12.3150 0.582
12.3255 0.807
12.3360 0.623
12.3465 0.715
12.3571 0.848
12.3676 0.664
12.3781 0.858
12.3886 0.827
12.3992 0.776
12.4097 0.725
12.4202 0.899
12.4307 0.705
12.4412 0.592
12.4518 0.664
12.4623 0.623
12.4728 0.807
12.4833 0.797
12.4939 0.551
12.5044 0.684
12.5149 0.592
12.5254 0.797
12.5360 0.643
12.5465 0.797
12.5570 0.664
12.5675 0.654
12.5780 0.633
12.5886 0.705
12.5991 0.715
12.6096 0.674
12.6201 0.664
12.6307 0.623
12.6412 0.684
12.6517 0.766
12.6622 0.786
12.6727 0.817
12.6833 0.500
12.6938 0.603
12.7043 0.705
12.7148 0.684
12.7254 0.551
12.7359 0.715
12.7464 0.633
12.7569 0.725
12.7674 0.674
12.7780 0.807
12.7885 0.746
12.7990 0.746
12.8095 0.551
12.8201 0.746
12.8306 0.603
12.8411 0.541
12.8516 0.735
12.8622 0.613
12.8727 0.715
12.8832 0.592
12.8937 0.643
12.9042 0.633
12.9148 0.674
12.9253 0.603
12.9358 0.531
12.9463 0.664
12.9569 0.551
12.9674 0.500
12.9779 0.603
12.9884 0.439
12.9989 0.735
13.0095 0.643
13.0200 0.582
13.0305 0.572
13.0410 0.735
13.0516 0.694
13.0621 0.623
13.0726 0.735
13.0831 0.766
13.0937 0.643
13.1042 0.541
13.1147 0.725
13.1252 0.562
13.1357 0.572
13.1463 0.623
13.1568 0.623
13.1673 0.725
13.1778 0.603
13.1884 0.674
13.1989 0.490
13.2094 0.654
13.2199 0.705
13.2304 0.470
13.2410 0.551
13.2515 0.654
13.2620 0.613
13.2725 0.664
13.2831 0.654
13.2936 0.521
13.3041 0.725
13.3146 0.572
13.3251 0.470
13.3357 0.694
13.3462 0.531
13.3567 0.633
13.3672 0.715
13.3778 0.725
13.3883 0.735
13.3988 0.613
13.4093 0.735
13.4199 0.521
13.4304 0.592
13.4409 0.551
13.4514 0.572
13.4619 0.766
13.4725 0.511
13.4830 0.480
13.4935 0.746
13.5040 0.664
13.5146 0.572
13.5251 0.582
13.5356 0.664
13.5461 0.735
13.5566 0.643
13.5672 0.654
13.5777 0.756
13.5882 0.623
13.5987 0.511
13.6093 0.654
13.6198 0.603
13.6303 0.582
13.6408 0.541
13.6514 0.623
13.6619 0.654
13.6724 0.531
13.6829 0.756
13.6934 0.551
13.7040 0.623
13.7145 0.460
13.7250 0.705
13.7355 0.674
13.7461 0.725
13.7566 0.603
13.7671 0.623
13.7776 0.613
13.7881 0.613
13.7987 0.521
13.8092 0.633
13.8197 0.694
13.8302 0.776
13.8408 0.603
13.8513 0.684
13.8618 0.613
13.8723 0.531
13.8828 0.694
13.8934 0.633
13.9039 0.633
13.9144 0.756
13.9249 0.623
13.9355 0.582
13.9460 0.694
13.9565 0.603
13.9670 0.603
13.9776 0.531
13.9881 0.684
13.9986 0.551
14.0091 0.592
14.0196 0.480
14.0302 0.582
14.0407 0.460
14.0512 0.500
14.0617 0.613
14.0723 0.521
14.0828 0.562
14.0933 0.654
14.1038 0.592
14.1143 0.725
14.1249 0.470
14.1354 0.521
14.1459 0.562
14.1564 0.613
14.1670 0.633
14.1775 0.603
14.1880 0.572
14.1985 0.531
14.2090 0.592
14.2196 0.715
14.2301 0.521
14.2406 0.633
14.2511 0.674
14.2617 0.582
14.2722 0.582
14.2827 0.582
14.2932 0.582
14.3038 0.603
14.3143 0.500
14.3248 0.582
14.3353 0.613
14.3458 0.470
14.3564 0.551
14.3669 0.460
14.3774 0.541
14.3879 0.674
14.3985 0.705
14.4090 0.664
14.4195 0.500
14.4300 0.582
14.4405 0.756
14.4511 0.541
14.4616 0.582
14.4721 0.572
14.4826 0.572
14.4932 0.654
14.5037 0.408
14.5142 0.419
14.5247 0.551
14.5353 0.470
14.5458 0.674
14.5563 0.674
14.5668 0.449
14.5773 0.582
14.5879 0.592
14.5984 0.531
14.6089 0.613
14.6194 0.674
14.6300 0.643
14.6405 0.582
14.6510 0.460
14.6615 0.613
14.6720 0.684
14.6826 0.541
14.6931 0.592
14.7036 0.500
14.7141 0.633
14.7247 0.572
14.7352 0.551
14.7457 0.521
14.7562 0.521
14.7667 0.582
14.7773 0.623
14.7878 0.633
14.7983 0.500
14.8088 0.694
14.8194 0.654
14.8299 0.470
14.8404 0.531
14.8509 0.654
14.8615 0.419
14.8720 0.429
14.8825 0.684
14.8930 0.592
14.9035 0.551
14.9141 0.541
14.9246 0.705
14.9351 0.531
14.9456 0.654
14.9562 0.623
14.9667 0.500
14.9772 0.684
14.9877 0.541
14.9982 0.398
15.0088 0.551
15.0193 0.500
15.0298 0.623
15.0403 0.562
15.0509 0.664
15.0614 0.531
15.0719 0.572
15.0824 0.531
15.0929 0.449
15.1035 0.521
15.1140 0.541
15.1245 0.654
15.1350 0.582
15.1456 0.633
15.1561 0.603
15.1666 0.470
15.1771 0.562
15.1877 0.623
15.1982 0.654
15.2087 0.408
15.2192 0.551
15.2297 0.562
15.2403 0.603
15.2508 0.582
15.2613 0.490
15.2718 0.460
15.2824 0.368
15.2929 0.470
15.3034 0.460
15.3139 0.562
15.3244 0.439
15.3350 0.531
15.3455 0.613
15.3560 0.613
15.3665 0.521
15.3771 0.439
15.3876 0.429
15.3981 0.572
15.4086 0.562
15.4192 0.603
15.4297 0.511
15.4402 0.541
15.4507 0.378
15.4612 0.511
15.4718 0.419
15.4823 0.643
15.4928 0.460
15.5033 0.480
15.5139 0.531
15.5244 0.470
15.5349 0.551
15.5454 0.572
15.5559 0.511
15.5665 0.531
15.5770 0.439
15.5875 0.521
15.5980 0.684
15.6086 0.613
15.6191 0.511
15.6296 0.521
15.6401 0.531
15.6506 0.572
15.6612 0.490
15.6717 0.490
15.6822 0.500
15.6927 0.531
15.7033 0.541
15.7138 0.541
15.7243 0.521
15.7348 0.551
15.7454 0.511
15.7559 0.449
15.7664 0.460
15.7769 0.582
15.7874 0.521
15.7980 0.511
15.8085 0.511
15.8190 0.521
15.8295 0.541
15.8401 0.470
15.8506 0.521
15.8611 0.592
15.8716 0.439
15.8821 0.408
15.8927 0.531
15.9032 0.531
15.9137 0.357
15.9242 0.541
15.9348 0.603
15.9453 0.398
15.9558 0.643
15.9663 0.531
15.9768 0.511
15.9874 0.684
15.9979 0.592
16.0084 0.521
16.0189 0.531
16.0295 0.460
16.0400 0.541
16.0505 0.490
16.0610 0.408
16.0716 0.541
16.0821 0.551
16.0926 0.460
16.1031 0.368
16.1136 0.541
16.1242 0.562
16.1347 0.470
16.1452 0.480
16.1557 0.654
16.1663 0.511
16.1768 0.398
16.1873 0.521
16.1978 0.500
16.2083 0.470
16.2189 0.317
16.2294 0.511
16.2399 0.480
16.2504 0.684
16.2610 0.439
16.2715 0.470
16.2820 0.551
16.2925 0.470
16.3031 0.684
16.3136 0.449
16.3241 0.592
16.3346 0.603
16.3451 0.623
16.3557 0.490
16.3662 0.592
16.3767 0.592
16.3872 0.490
16.3978 0.357
16.4083 0.531
16.4188 0.623
16.4293 0.541
16.4398 0.633
16.4504 0.449
16.4609 0.460
16.4714 0.572
16.4819 0.490
16.4925 0.674
16.5030 0.541
16.5135 0.419
16.5240 0.480
16.5345 0.613
16.5451 0.521
16.5556 0.643
16.5661 0.449
16.5766 0.562
16.5872 0.480
16.5977 0.500
16.6082 0.562
16.6187 0.521
16.6293 0.480
16.6398 0.582
16.6503 0.460
16.6608 0.511
16.6713 0.470
16.6819 0.500
16.6924 0.460
16.7029 0.419
16.7134 0.460
16.7240 0.500
16.7345 0.480
16.7450 0.378
16.7555 0.633
16.7660 0.643
16.7766 0.572
16.7871 0.480
16.7976 0.551
16.8081 0.562
16.8187 0.490
16.8292 0.398
16.8397 0.776
16.8502 0.654
16.8607 0.613
16.8713 0.664
16.8818 0.541
16.8923 0.654
16.9028 0.654
16.9134 0.735
16.9239 0.756
16.9344 0.633
16.9449 0.654
16.9555 0.715
16.9660 0.756
16.9765 0.878
16.9870 0.858
16.9975 0.797
17.0081 0.970
17.0186 1.113
17.0291 0.940
17.0396 1.215
17.0502 1.491
17.0607 1.654
17.0712 2.042
17.0817 2.359
17.0922 2.277
17.1028 3.217
17.1133 3.411
17.1238 4.003
17.1343 5.239
17.1449 5.678
17.1554 6.567
17.1659 7.557
17.1764 7.823
17.1870 9.263
17.1975 9.028
17.2080 9.804
17.2185 8.967
17.2290 8.497
17.2396 7.802
17.2501 6.505
17.2606 5.065
17.2711 4.667
17.2817 4.003
17.2922 2.768
17.3027 2.553
17.3132 2.083
17.3237 1.481
17.3343 1.307
17.3448 1.215
17.3553 0.980
17.3658 1.225
17.3764 0.807
17.3869 0.786
17.3974 0.643
17.4079 0.654
17.4184 0.562
17.4290 0.654
17.4395 0.735
17.4500 0.664
17.4605 0.766
17.4711 0.562
17.4816 0.449
17.4921 0.460
17.5026 0.613
17.5132 0.603
17.5237 0.582
17.5342 0.613
17.5447 0.419
17.5552 0.470
17.5658 0.439
17.5763 0.541
17.5868 0.623
17.5973 0.572
17.6079 0.449
17.6184 0.500
17.6289 0.419
17.6394 0.551
17.6499 0.429
17.6605 0.521
17.6710 0.551
17.6815 0.398
17.6920 0.500
17.7026 0.449
17.7131 0.562
17.7236 0.562
17.7341 0.562
17.7447 0.582
17.7552 0.521
17.7657 0.551
17.7762 0.511
17.7867 0.470
17.7973 0.511
17.8078 0.521
17.8183 0.551
17.8288 0.368
17.8394 0.357
17.8499 0.460
17.8604 0.327
17.8709 0.449
17.8814 0.541
17.8920 0.449
17.9025 0.592
17.9130 0.511
17.9235 0.429
17.9341 0.419
17.9446 0.419
17.9551 0.419
17.9656 0.317
17.9761 0.603
17.9867 0.470
17.9972 0.388
18.0077 0.541
18.0182 0.429
18.0288 0.419
18.0393 0.398
18.0498 0.378
18.0603 0.408
18.0709 0.449
18.0814 0.511
18.0919 0.419
18.1024 0.429
18.1129 0.500
18.1235 0.490
18.1340 0.449
18.1445 0.460
18.1550 0.317
18.1656 0.470
18.1761 0.378
18.1866 0.449
18.1971 0.562
18.2076 0.541
18.2182 0.449
18.2287 0.511
18.2392 0.388
18.2497 0.408
18.2603 0.511
18.2708 0.439
18.2813 0.562
18.2918 0.357
18.3023 0.337
18.3129 0.480
18.3234 0.357
18.3339 0.439
18.3444 0.490
18.3550 0.572
18.3655 0.460
18.3760 0.460
18.3865 0.398
18.3971 0.500
18.4076 0.562
18.4181 0.470
18.4286 0.419
18.4391 0.511
18.4497 0.449
18.4602 0.449
18.4707 0.470
18.4812 0.419
18.4918 0.439
18.5023 0.378
18.5128 0.378
18.5233 0.490
18.5338 0.306
18.5444 0.480
18.5549 0.398
18.5654 0.500
18.5759 0.388
18.5865 0.378
18.5970 0.378
18.6075 0.429
18.6180 0.439
18.6286 0.408
18.6391 0.439
18.6496 0.470
18.6601 0.419
18.6706 0.378
18.6812 0.460
18.6917 0.347
18.7022 0.357
18.7127 0.470
18.7233 0.449
18.7338 0.613
18.7443 0.429
18.7548 0.398
18.7653 0.368
18.7759 0.419
18.7864 0.439
18.7969 0.490
18.8074 0.449
18.8180 0.429
18.8285 0.531
18.8390 0.480
18.8495 0.439
18.8600 0.398
18.8706 0.337
18.8811 0.347
18.8916 0.521
18.9021 0.449
18.9127 0.480
18.9232 0.470
18.9337 0.460
18.9442 0.429
18.9548 0.398
18.9653 0.327
18.9758 0.398
18.9863 0.419
18.9968 0.337
19.0074 0.531
19.0179 0.500
19.0284 0.449
19.0389 0.429
19.0495 0.562
19.0600 0.357
19.0705 0.419
19.0810 0.500
19.0915 0.317
19.1021 0.439
19.1126 0.317
19.1231 0.245
19.1336 0.408
19.1442 0.480
19.1547 0.398
19.1652 0.327
19.1757 0.398
19.1862 0.306
19.1968 0.429
19.2073 0.449
19.2178 0.368
19.2283 0.419
19.2389 0.419
19.2494 0.541
19.2599 0.419
19.2704 0.398
19.2810 0.378
19.2915 0.439
19.3020 0.337
19.3125 0.357
19.3230 0.408
19.3336 0.337
19.3441 0.327
19.3546 0.408
19.3651 0.357
19.3757 0.449
19.3862 0.408
19.3967 0.511
19.4072 0.439
19.4177 0.419
19.4283 0.439
19.4388 0.531
19.4493 0.398
19.4598 0.531
19.4704 0.347
19.4809 0.398
19.4914 0.337
19.5019 0.398
19.5125 0.449
19.5230 0.439
19.5335 0.408
19.5440 0.317
19.5545 0.449
19.5651 0.531
19.5756 0.500
19.5861 0.408
19.5966 0.306
19.6072 0.337
19.6177 0.480
19.6282 0.368
19.6387 0.460
19.6492 0.460
19.6598 0.317
19.6703 0.480
19.6808 0.419
19.6913 0.439
19.7019 0.398
19.7124 0.480
19.7229 0.368
19.7334 0.470
19.7439 0.296
19.7545 0.429
19.7650 0.531
19.7755 0.368
19.7860 0.327
19.7966 0.521
19.8071 0.439
19.8176 0.327
19.8281 0.408
19.8387 0.398
19.8492 0.531
19.8597 0.460
19.8702 0.449
19.8807 0.521
19.8913 0.398
19.9018 0.388
19.9123 0.337
19.9228 0.337
19.9334 0.368
19.9439 0.266
19.9544 0.449
19.9649 0.368
19.9754 0.439
19.9860 0.368
19.9965 0.541
20.0070 0.327
20.0175 0.398
20.0281 0.368
20.0386 0.439
20.0491 0.398
20.0596 0.357
20.0701 0.378
20.0807 0.449
20.0912 0.460
20.1017 0.551
20.1122 0.439
20.1228 0.306
20.1333 0.357
20.1438 0.378
20.1543 0.449
20.1649 0.470
20.1754 0.368
20.1859 0.470
20.1964 0.439
20.2069 0.429
20.2175 0.306
20.2280 0.562
20.2385 0.500
20.2490 0.490
20.2596 0.551
20.2701 0.439
20.2806 0.388
20.2911 0.378
20.3016 0.470
20.3122 0.460
20.3227 0.551
20.3332 0.449
20.3437 0.511
20.3543 0.368
20.3648 0.429
20.3753 0.480
20.3858 0.511
20.3964 0.378
20.4069 0.480
20.4174 0.470
20.4279 0.408
20.4384 0.439
20.4490 0.531
20.4595 0.500
20.4700 0.633
20.4805 0.776
20.4911 0.654
20.5016 0.408
20.5121 0.705
20.5226 0.592
20.5331 0.643
20.5437 0.766
20.5542 0.674
20.5647 0.735
20.5752 0.858
20.5858 0.878
20.5963 1.031
20.6068 0.929
20.6173 1.031
20.6278 1.246
20.6384 1.460
20.6489 1.716
20.6594 2.114
20.6699 2.798
20.6805 2.696
20.6910 3.401
20.7015 4.116
20.7120 4.943
20.7226 5.433
20.7331 7.700
20.7436 8.364
20.7541 9.906
20.7646 11.877
20.7752 12.919
20.7857 14.154
20.7962 16.136
20.8067 15.656
20.8173 16.013
20.8278 14.655
20.8383 13.521
20.8488 11.754
20.8593 9.395
20.8699 8.599
20.8804 7.077
20.8909 5.739
20.9014 4.698
20.9120 4.075
20.9225 3.054
20.9330 2.706
20.9435 2.165
20.9541 1.940
20.9646 1.777
20.9751 1.552
20.9856 1.358
20.9961 1.113
21.0067 1.164
21.0172 0.929
21.0277 0.837
21.0382 0.746
21.0488 0.848
21.0593 0.797
21.0698 0.725
21.0803 0.551
21.0908 0.603
21.1014 0.592
21.1119 0.562
21.1224 0.582
21.1329 0.572
21.1435 0.531
21.1540 0.551
21.1645 0.460
21.1750 0.429
21.1855 0.500
21.1961 0.388
21.2066 0.449
21.2171 0.460
21.2276 0.398
21.2382 0.388
21.2487 0.398
21.2592 0.408
21.2697 0.429
21.2803 0.337
21.2908 0.449
21.3013 0.439
21.3118 0.419
21.3223 0.388
21.3329 0.470
21.3434 0.378
21.3539 0.439
21.3644 0.357
21.3750 0.603
21.3855 0.368
21.3960 0.337
21.4065 0.449
21.4170 0.388
21.4276 0.368
21.4381 0.378
21.4486 0.408
21.4591 0.511
21.4697 0.511
21.4802 0.286
21.4907 0.429
21.5012 0.398
21.5117 0.347
21.5223 0.449
21.5328 0.327
21.5433 0.408
21.5538 0.378
21.5644 0.317
21.5749 0.500
21.5854 0.286
21.5959 0.245
21.6065 0.357
21.6170 0.357
21.6275 0.388
21.6380 0.378
21.6485 0.429
21.6591 0.337
21.6696 0.357
21.6801 0.429
21.6906 0.357
21.7012 0.368
21.7117 0.347
21.7222 0.429
21.7327 0.347
21.7432 0.347
21.7538 0.419
21.7643 0.388
21.7748 0.388
21.7853 0.276
21.7959 0.327
21.8064 0.276
21.8169 0.439
21.8274 0.347
21.8380 0.439
21.8485 0.439
21.8590 0.276
21.8695 0.378
21.8800 0.408
21.8906 0.480
21.9011 0.368
21.9116 0.460
21.9221 0.327
21.9327 0.327
21.9432 0.368
21.9537 0.327
21.9642 0.347
21.9747 0.439
21.9853 0.439
21.9958 0.470
22.0063 0.490
22.0168 0.419
22.0274 0.296
22.0379 0.306
22.0484 0.245
22.0589 0.337
22.0694 0.449
22.0800 0.408
22.0905 0.357
22.1010 0.368
22.1115 0.470
22.1221 0.255
22.1326 0.378
22.1431 0.347
22.1536 0.408
22.1642 0.337
22.1747 0.286
22.1852 0.266
22.1957 0.347
22.2062 0.408
22.2168 0.470
22.2273 0.470
22.2378 0.511
22.2483 0.378
22.2589 0.368
22.2694 0.398
22.2799 0.419
22.2904 0.419
22.3009 0.347
22.3115 0.337
22.3220 0.480
22.3325 0.347
22.3430 0.398
22.3536 0.449
22.3641 0.357
22.3746 0.378
22.3851 0.327
22.3956 0.490
22.4062 0.357
22.4167 0.419
22.4272 0.572
22.4377 0.490
22.4483 0.582
22.4588 0.531
22.4693 0.572
22.4798 0.490
22.4904 0.592
22.5009 0.654
22.5114 0.592
22.5219 0.582
22.5324 0.725
22.5430 0.664
22.5535 0.715
22.5640 0.705
22.5745 0.817
22.5851 0.970
22.5956 1.246
22.6061 1.185
22.6166 1.297
22.6271 1.532
22.6377 1.869
22.6482 2.216
22.6587 2.308
22.6692 2.900
22.6798 3.217
22.6903 3.666
22.7008 4.299
22.7113 4.882
22.7219 4.688
22.7324 5.770
22.7429 6.199
22.7534 6.301
22.7639 5.096
22.7745 5.014
22.7850 4.892
22.7955 4.524
22.8060 4.402
22.8166 3.084
22.8271 2.972
22.8376 2.471
22.8481 2.247
22.8586 1.981
22.8692 1.256
22.8797 1.491
22.8902 1.062
22.9007 0.970
22.9113 1.011
22.9218 0.837
22.9323 0.786
22.9428 0.592
22.9533 0.705
22.9639 0.500
22.9744 0.674
22.9849 0.429
22.9954 0.460
23.0060 0.541
23.0165 0.398
23.0270 0.531
23.0375 0.480
23.0481 0.408
23.0586 0.439
23.0691 0.449
23.0796 0.388
23.0901 0.388
23.1007 0.317
23.1112 0.531
23.1217 0.511
23.1322 0.480
23.1428 0.429
23.1533 0.306
23.1638 0.378
23.1743 0.408
23.1848 0.327
23.1954 0.388
23.2059 0.490
23.2164 0.337
23.2269 0.398
23.2375 0.337
23.2480 0.419
23.2585 0.296
23.2690 0.460
23.2795 0.357
23.2901 0.306
23.3006 0.419
23.3111 0.235
23.3216 0.347
23.3322 0.408
23.3427 0.408
23.3532 0.255
23.3637 0.317
23.3743 0.296
23.3848 0.408
23.3953 0.357
23.4058 0.347
23.4163 0.429
23.4269 0.306
23.4374 0.337
23.4479 0.511
23.4584 0.337
23.4690 0.398
23.4795 0.398
23.4900 0.266
23.5005 0.337
23.5110 0.327
23.5216 0.327
23.5321 0.378
23.5426 0.419
23.5531 0.286
23.5637 0.337
23.5742 0.357
23.5847 0.500
23.5952 0.388
23.6058 0.388
23.6163 0.439
23.6268 0.276
23.6373 0.419
23.6478 0.408
23.6584 0.245
23.6689 0.368
23.6794 0.296
23.6899 0.317
23.7005 0.388
23.7110 0.296
23.7215 0.296
23.7320 0.408
23.7425 0.408
23.7531 0.460
23.7636 0.408
23.7741 0.378
23.7846 0.398
23.7952 0.429
23.8057 0.337
23.8162 0.521
23.8267 0.306
23.8372 0.327
23.8478 0.388
23.8583 0.245
23.8688 0.357
23.8793 0.429
23.8899 0.603
23.9004 0.490
23.9109 0.531
23.9214 0.368
23.9320 0.500
23.9425 0.500
23.9530 0.694
23.9635 0.674
23.9740 0.623
23.9846 0.929
23.9951 1.031
24.0056 1.021
24.0161 1.205
24.0267 1.134
24.0372 1.563
24.0477 1.818
24.0582 1.910
24.0687 2.002
24.0793 2.094
24.0898 2.267
24.1003 1.991
24.1108 1.797
24.1214 2.134
24.1319 1.787
24.1424 1.900
24.1529 1.277
24.1635 1.215
24.1740 1.164
24.1845 1.154
24.1950 0.940
24.2055 0.735
24.2161 0.827
24.2266 0.776
24.2371 0.511
24.2476 0.480
24.2582 0.541
24.2687 0.398
24.2792 0.368
24.2897 0.541
24.3002 0.480
24.3108 0.368
24.3213 0.429
24.3318 0.562
24.3423 0.449
24.3529 0.347
24.3634 0.296
24.3739 0.357
24.3844 0.347
24.3949 0.337
24.4055 0.378
24.4160 0.388
24.4265 0.429
24.4370 0.317
24.4476 0.378
24.4581 0.398
24.4686 0.286
24.4791 0.357
24.4897 0.296
24.5002 0.317
24.5107 0.255
24.5212 0.276
24.5317 0.368
24.5423 0.317
24.5528 0.306
24.5633 0.398
24.5738 0.347
24.5844 0.347
24.5949 0.368
24.6054 0.337
24.6159 0.449
24.6264 0.317
24.6370 0.368
24.6475 0.306
24.6580 0.378
24.6685 0.449
24.6791 0.327
24.6896 0.306
24.7001 0.337
24.7106 0.317
24.7211 0.419
24.7317 0.368
24.7422 0.306
24.7527 0.266
24.7632 0.408
24.7738 0.296
24.7843 0.357
24.7948 0.337
24.8053 0.317
24.8159 0.337
24.8264 0.296
24.8369 0.347
24.8474 0.419
24.8579 0.378
24.8685 0.306
24.8790 0.235
24.8895 0.408
24.9000 0.378
24.9106 0.439
24.9211 0.368
24.9316 0.368
24.9421 0.347
24.9526 0.337
24.9632 0.378
24.9737 0.439
24.9842 0.368
24.9947 0.317
25.0053 0.357
25.0158 0.388
25.0263 0.521
25.0368 0.388
25.0474 0.306
25.0579 0.439
25.0684 0.368
25.0789 0.439
25.0894 0.388
25.1000 0.439
25.1105 0.490
25.1210 0.378
25.1315 0.460
25.1421 0.419
25.1526 0.551
25.1631 0.419
25.1736 0.511
25.1841 0.562
25.1947 0.480
25.2052 0.521
25.2157 0.592
25.2262 0.582
25.2368 0.541
25.2473 0.460
25.2578 0.725
25.2683 0.674
25.2788 0.654
25.2894 0.756
25.2999 0.664
25.3104 0.684
25.3209 0.858
25.3315 0.766
25.3420 0.837
25.3525 0.919
25.3630 0.991
25.3736 1.001
25.3841 1.256
25.3946 1.174
25.4051 1.522
25.4156 1.665
25.4262 1.767
25.4367 2.226
25.4472 2.420
25.4577 2.900
25.4683 3.421
25.4788 3.830
25.4893 4.013
25.4998 4.759
25.5103 6.046
25.5209 6.822
25.5314 7.915
25.5419 9.069
25.5524 11.019
25.5630 12.776
25.5735 14.226
25.5840 15.962
25.5945 17.667
25.6050 18.607
25.6156 18.536
25.6261 18.781
25.6366 18.944
25.6471 17.361
25.6577 16.360
25.6682 15.268
25.6787 13.266
25.6892 11.550
25.6998 9.916
25.7103 8.456
25.7208 7.251
25.7313 6.005
25.7418 5.188
25.7524 4.698
25.7629 3.728
25.7734 3.115
25.7839 3.002
25.7945 2.257
25.8050 2.185
25.8155 1.900
25.8260 1.675
25.8365 1.685
25.8471 1.511
25.8576 1.266
25.8681 1.195
25.8786 1.134
25.8892 1.093
25.8997 0.919
25.9102 0.766
25.9207 0.705
25.9313 0.807
25.9418 0.694
25.9523 0.715
25.9628 0.684
25.9733 0.746
25.9839 0.490
25.9944 0.643
26.0049 0.582
26.0154 0.541
26.0260 0.582
26.0365 0.439
26.0470 0.592
26.0575 0.439
26.0680 0.541
26.0786 0.470
26.0891 0.582
26.0996 0.449
26.1101 0.490
26.1207 0.439
26.1312 0.388
26.1417 0.521
26.1522 0.470
26.1627 0.408
26.1733 0.429
26.1838 0.388
26.1943 0.306
26.2048 0.347
26.2154 0.398
26.2259 0.337
26.2364 0.368
26.2469 0.306
26.2575 0.317
26.2680 0.398
26.2785 0.378
26.2890 0.357
26.2995 0.306
26.3101 0.368
26.3206 0.347
26.3311 0.266
26.3416 0.347
26.3522 0.347
26.3627 0.286
26.3732 0.347
26.3837 0.368
26.3942 0.327
26.4048 0.347
26.4153 0.306
26.4258 0.368
26.4363 0.419
26.4469 0.306
26.4574 0.317
26.4679 0.347
26.4784 0.306
26.4889 0.368
26.4995 0.388
26.5100 0.276
26.5205 0.357
26.5310 0.266
26.5416 0.266
26.5521 0.317
26.5626 0.317
26.5731 0.194
26.5837 0.296
26.5942 0.419
26.6047 0.225
26.6152 0.276
26.6257 0.337
26.6363 0.449
26.6468 0.408
26.6573 0.317
26.6678 0.317
26.6784 0.225
26.6889 0.296
26.6994 0.327
26.7099 0.368
26.7204 0.296
26.7310 0.419
26.7415 0.286
26.7520 0.347
26.7625 0.286
26.7731 0.266
26.7836 0.317
26.7941 0.296
26.8046 0.245
26.8152 0.347
26.8257 0.245
26.8362 0.266
26.8467 0.286
26.8572 0.357
26.8678 0.255
26.8783 0.266
26.8888 0.286
26.8993 0.347
26.9099 0.347
26.9204 0.276
26.9309 0.214
26.9414 0.306
26.9519 0.337
26.9625 0.286
26.9730 0.378
26.9835 0.337
26.9940 0.368
27.0046 0.276
27.0151 0.306
27.0256 0.306
27.0361 0.317
27.0466 0.347
27.0572 0.204
27.0677 0.296
27.0782 0.276
27.0887 0.419
27.0993 0.266
27.1098 0.317
27.1203 0.368
27.1308 0.225
27.1414 0.378
27.1519 0.286
27.1624 0.306
27.1729 0.470
27.1834 0.245
27.1940 0.327
27.2045 0.286
27.2150 0.255
27.2255 0.225
27.2361 0.306
27.2466 0.296
27.2571 0.286
27.2676 0.296
27.2781 0.235
27.2887 0.327
27.2992 0.276
27.3097 0.235
27.3202 0.337
27.3308 0.296
27.3413 0.327
27.3518 0.266
27.3623 0.235
27.3728 0.357
27.3834 0.153
27.3939 0.286
27.4044 0.276
27.4149 0.317
27.4255 0.225
27.4360 0.296
27.4465 0.276
27.4570 0.266
27.4676 0.245
27.4781 0.245
27.4886 0.245
27.4991 0.286
27.5096 0.266
27.5202 0.255
27.5307 0.214
27.5412 0.225
27.5517 0.266
27.5623 0.306
27.5728 0.276
27.5833 0.408
27.5938 0.317
27.6043 0.327
27.6149 0.245
27.6254 0.245
27.6359 0.245
27.6464 0.174
27.6570 0.408
27.6675 0.327
27.6780 0.296
27.6885 0.266
27.6991 0.317
27.7096 0.194
27.7201 0.306
27.7306 0.112
27.7411 0.286
27.7517 0.276
27.7622 0.347
27.7727 0.296
27.7832 0.276
27.7938 0.306
27.8043 0.245
27.8148 0.306
27.8253 0.306
27.8358 0.337
27.8464 0.276
27.8569 0.306
27.8674 0.327
27.8779 0.225
27.8885 0.296
27.8990 0.388
27.9095 0.357
27.9200 0.204
27.9305 0.429
27.9411 0.286
27.9516 0.255
27.9621 0.225
27.9726 0.347
27.9832 0.327
27.9937 0.266
28.0042 0.306
28.0147 0.337
28.0253 0.286
28.0358 0.266
28.0463 0.255
28.0568 0.225
28.0673 0.296
28.0779 0.194
28.0884 0.347
28.0989 0.306
28.1094 0.245
28.1200 0.214
28.1305 0.327
28.1410 0.337
28.1515 0.194
28.1620 0.327
28.1726 0.194
28.1831 0.204
28.1936 0.347
28.2041 0.235
28.2147 0.214
28.2252 0.357
28.2357 0.317
28.2462 0.296
28.2568 0.337
28.2673 0.235
28.2778 0.286
28.2883 0.378
28.2988 0.225
28.3094 0.296
28.3199 0.327
28.3304 0.235
28.3409 0.235
28.3515 0.214
28.3620 0.337
28.3725 0.255
28.3830 0.276
28.3935 0.408
28.4041 0.255
28.4146 0.276
28.4251 0.388
28.4356 0.214
28.4462 0.317
28.4567 0.276
28.4672 0.286
28.4777 0.286
28.4882 0.276
28.4988 0.214
28.5093 0.225
28.5198 0.337
28.5303 0.286
28.5409 0.347
28.5514 0.296
28.5619 0.296
28.5724 0.174
28.5830 0.214
28.5935 0.276
28.6040 0.255
28.6145 0.255
28.6250 0.286
28.6356 0.296
28.6461 0.317
28.6566 0.266
28.6671 0.194
28.6777 0.327
28.6882 0.398
28.6987 0.306
28.7092 0.439
28.7197 0.225
28.7303 0.337
28.7408 0.296
28.7513 0.235
28.7618 0.296
28.7724 0.306
28.7829 0.296
28.7934 0.276
28.8039 0.204
28.8144 0.337
28.8250 0.429
28.8355 0.296
28.8460 0.317
28.8565 0.276
28.8671 0.286
28.8776 0.296
28.8881 0.337
28.8986 0.347
28.9092 0.357
28.9197 0.327
28.9302 0.388
28.9407 0.368
28.9512 0.286
28.9618 0.276
28.9723 0.368
28.9828 0.306
28.9933 0.429
29.0039 0.419
29.0144 0.266
29.0249 0.317
29.0354 0.378
29.0459 0.255
29.0565 0.368
29.0670 0.357
29.0775 0.388
29.0880 0.368
29.0986 0.317
29.1091 0.296
29.1196 0.378
29.1301 0.317
29.1407 0.470
29.1512 0.429
29.1617 0.408
29.1722 0.398
29.1827 0.419
29.1933 0.368
29.2038 0.357
29.2143 0.378
29.2248 0.296
29.2354 0.408
29.2459 0.470
29.2564 0.368
29.2669 0.429
29.2774 0.368
29.2880 0.378
29.2985 0.572
29.3090 0.419
29.3195 0.572
29.3301 0.398
29.3406 0.521
29.3511 0.388
29.3616 0.603
29.3721 0.531
29.3827 0.551
29.3932 0.398
29.4037 0.592
29.4142 0.562
29.4248 0.725
29.4353 0.715
29.4458 0.572
29.4563 0.643
29.4669 0.705
29.4774 0.735
29.4879 1.052
29.4984 0.929
29.5089 0.888
29.5195 1.062
29.5300 1.042
29.5405 1.123
29.5510 1.379
29.5616 1.491
29.5721 1.665
29.5826 2.094
29.5931 1.910
29.6036 2.104
29.6142 2.533
29.6247 2.982
29.6352 3.125
29.6457 3.707
29.6563 4.463
29.6668 4.739
29.6773 5.556
29.6878 6.403
29.6983 6.587
29.7089 8.139
29.7194 9.150
29.7299 10.018
29.7404 11.305
29.7510 12.173
29.7615 13.072
29.7720 14.777
29.7825 14.430
29.7931 15.380
29.8036 15.227
29.8141 15.778
29.8246 15.329
29.8351 15.196
29.8457 13.419
29.8562 12.571
29.8667 10.989
29.8772 11.193
29.8878 8.701
29.8983 8.068
29.9088 7.108
29.9193 6.301
29.9298 5.259
29.9404 4.963
29.9509 4.024
29.9614 3.666
29.9719 3.033
29.9825 2.359
29.9930 1.910
30.0035 2.012
30.0140 1.746
30.0246 1.603
30.0351 1.450
30.0456 1.185
30.0561 1.011
30.0666 1.042
30.0772 0.940
30.0877 0.848
30.0982 0.940
30.1087 0.827
30.1193 0.776
30.1298 0.674
30.1403 0.643
30.1508 0.633
30.1613 0.582
30.1719 0.674
30.1824 0.480
30.1929 0.460
30.2034 0.480
30.2140 0.398
30.2245 0.429
30.2350 0.551
30.2455 0.378
30.2560 0.449
30.2666 0.449
30.2771 0.378
30.2876 0.449
30.2981 0.388
30.3087 0.500
30.3192 0.398
30.3297 0.327
30.3402 0.378
30.3508 0.327
30.3613 0.378
30.3718 0.408
30.3823 0.235
30.3928 0.276
30.4034 0.357
30.4139 0.347
30.4244 0.286
30.4349 0.327
30.4455 0.368
30.4560 0.357
30.4665 0.276
30.4770 0.286
30.4875 0.286
30.4981 0.255
30.5086 0.286
30.5191 0.347
30.5296 0.296
30.5402 0.347
30.5507 0.255
30.5612 0.357
30.5717 0.266
30.5822 0.296
30.5928 0.225
30.6033 0.296
30.6138 0.225
30.6243 0.163
30.6349 0.306
30.6454 0.235
30.6559 0.357
30.6664 0.194
30.6770 0.225
30.6875 0.245
30.6980 0.266
30.7085 0.266
30.7190 0.347
30.7296 0.255
30.7401 0.276
30.7506 0.347
30.7611 0.276
30.7717 0.296
30.7822 0.286
30.7927 0.306
30.8032 0.357
30.8137 0.286
30.8243 0.276
30.8348 0.255
30.8453 0.327
30.8558 0.235
30.8664 0.296
30.8769 0.235
30.8874 0.368
30.8979 0.327
30.9085 0.266
30.9190 0.317
30.9295 0.378
30.9400 0.174
30.9505 0.204
30.9611 0.235
30.9716 0.235
30.9821 0.255
30.9926 0.286
31.0032 0.214
31.0137 0.266
31.0242 0.327
31.0347 0.245
31.0452 0.276
31.0558 0.327
31.0663 0.245
31.0768 0.337
31.0873 0.266
31.0979 0.266
31.1084 0.235
31.1189 0.174
31.1294 0.347
31.1399 0.255
31.1505 0.255
31.1610 0.225
31.1715 0.276
31.1820 0.255
31.1926 0.255
31.2031 0.296
31.2136 0.286
31.2241 0.286
31.2347 0.286
31.2452 0.245
31.2557 0.194
31.2662 0.276
31.2767 0.266
31.2873 0.276
31.2978 0.184
31.3083 0.306
31.3188 0.337
31.3294 0.266
31.3399 0.317
31.3504 0.255
31.3609 0.306
31.3714 0.153
31.3820 0.245
31.3925 0.245
31.4030 0.286
31.4135 0.235
31.4241 0.296
31.4346 0.317
31.4451 0.306
31.4556 0.194
31.4662 0.255
31.4767 0.296
31.4872 0.327
31.4977 0.245
31.5082 0.286
31.5188 0.225
31.5293 0.245
31.5398 0.143
31.5503 0.245
31.5609 0.317
31.5714 0.245
31.5819 0.235
31.5924 0.286
31.6029 0.255
31.6135 0.255
31.6240 0.266
31.6345 0.266
31.6450 0.214
31.6556 0.306
31.6661 0.306
31.6766 0.184
31.6871 0.214
31.6976 0.347
31.7082 0.306
31.7187 0.204
31.7292 0.306
31.7397 0.296
31.7503 0.235
31.7608 0.266
31.7713 0.388
31.7818 0.255
31.7924 0.235
31.8029 0.276
31.8134 0.296
31.8239 0.235
31.8344 0.368
31.8450 0.296
31.8555 0.317
31.8660 0.327
31.8765 0.296
31.8871 0.317
31.8976 0.439
31.9081 0.337
31.9186 0.398
31.9291 0.408
31.9397 0.388
31.9502 0.460
31.9607 0.500
31.9712 0.480
31.9818 0.490
31.9923 0.470
32.0028 0.531
32.0133 0.419
32.0238 0.541
32.0344 0.562
32.0449 0.643
32.0554 0.623
32.0659 0.960
32.0765 0.858
32.0870 0.919
32.0975 1.031
32.1080 1.123
32.1186 1.236
32.1291 1.644
32.1396 1.869
32.1501 2.124
32.1606 2.298
32.1712 2.737
32.1817 3.360
32.1922 3.768
32.2027 4.493
32.2133 5.474
32.2238 5.790
32.2343 6.342
32.2448 6.628
32.2553 7.057
32.2659 6.914
32.2764 7.149
32.2869 6.618
32.2974 6.066
32.3080 5.658
32.3185 4.718
32.3290 3.891
32.3395 3.962
32.3501 3.064
32.3606 2.533
32.3711 2.410
32.3816 1.920
32.3921 1.746
32.4027 1.420
32.4132 1.225
32.4237 1.134
32.4342 1.164
32.4448 0.909
32.4553 0.848
32.4658 0.837
32.4763 0.654
32.4868 0.746
32.4974 0.674
32.5079 0.592
32.5184 0.551
32.5289 0.480
32.5395 0.470
32.5500 0.388
32.5605 0.480
32.5710 0.337
32.5815 0.408
32.5921 0.357
32.6026 0.296
32.6131 0.337
32.6236 0.327
32.6342 0.296
32.6447 0.337
32.6552 0.296
32.6657 0.327
32.6763 0.296
32.6868 0.408
32.6973 0.296
32.7078 0.368
32.7183 0.327
32.7289 0.255
32.7394 0.306
32.7499 0.276
32.7604 0.317
32.7710 0.357
32.7815 0.276
32.7920 0.235
32.8025 0.255
32.8130 0.306
32.8236 0.245
32.8341 0.255
32.8446 0.368
32.8551 0.276
32.8657 0.255
32.8762 0.276
32.8867 0.204
32.8972 0.347
32.9077 0.235
32.9183 0.408
32.9288 0.306
32.9393 0.184
32.9498 0.174
32.9604 0.266
32.9709 0.317
32.9814 0.184
32.9919 0.214
33.0025 0.286
33.0130 0.204
33.0235 0.235
33.0340 0.204
33.0445 0.276
33.0551 0.214
33.0656 0.357
33.0761 0.245
33.0866 0.235
33.0972 0.204
33.1077 0.368
33.1182 0.317
33.1287 0.276
33.1392 0.194
33.1498 0.286
33.1603 0.194
33.1708 0.214
33.1813 0.174
33.1919 0.245
33.2024 0.163
33.2129 0.235
33.2234 0.204
33.2340 0.225
33.2445 0.235
33.2550 0.225
33.2655 0.214
33.2760 0.296
33.2866 0.174
33.2971 0.266
33.3076 0.194
33.3181 0.194
33.3287 0.286
33.3392 0.266
33.3497 0.214
33.3602 0.225
33.3707 0.225
33.3813 0.235
33.3918 0.286
33.4023 0.255
33.4128 0.184
33.4234 0.174
33.4339 0.276
33.4444 0.235
33.4549 0.235
33.4654 0.276
33.4760 0.225
33.4865 0.296
33.4970 0.255
33.5075 0.225
33.5181 0.276
33.5286 0.306
33.5391 0.357
33.5496 0.184
33.5602 0.174
33.5707 0.327
33.5812 0.296
33.5917 0.286
33.6022 0.235
33.6128 0.276
33.6233 0.225
33.6338 0.194
33.6443 0.276
33.6549 0.194
33.6654 0.184
33.6759 0.214
33.6864 0.286
33.6969 0.204
33.7075 0.235
33.7180 0.266
33.7285 0.153
33.7390 0.225
33.7496 0.204
33.7601 0.235
33.7706 0.225
33.7811 0.255
33.7916 0.317
33.8022 0.163
33.8127 0.337
33.8232 0.266
33.8337 0.235
33.8443 0.174
33.8548 0.245
33.8653 0.306
33.8758 0.235
33.8864 0.194
33.8969 0.153
33.9074 0.204
33.9179 0.245
33.9284 0.174
33.9390 0.296
33.9495 0.163
33.9600 0.266
33.9705 0.306
33.9811 0.153
33.9916 0.276
34.0021 0.276
34.0126 0.276
34.0231 0.214
34.0337 0.276
34.0442 0.327
34.0547 0.276
34.0652 0.214
34.0758 0.214
34.0863 0.266
34.0968 0.204
34.1073 0.194
34.1179 0.255
34.1284 0.225
34.1389 0.255
34.1494 0.266
34.1599 0.214
34.1705 0.276
34.1810 0.225
34.1915 0.255
34.2020 0.255
34.2126 0.184
34.2231 0.184
34.2336 0.235
34.2441 0.255
34.2546 0.266
34.2652 0.204
34.2757 0.306
34.2862 0.276
34.2967 0.255
34.3073 0.235
34.3178 0.296
34.3283 0.235
34.3388 0.255
34.3493 0.266
34.3599 0.214
34.3704 0.255
34.3809 0.276
34.3914 0.286
34.4020 0.306
34.4125 0.255
34.4230 0.317
34.4335 0.327
34.4441 0.327
34.4546 0.327
34.4651 0.317
34.4756 0.276
34.4861 0.388
34.4967 0.429
34.5072 0.419
34.5177 0.531
34.5282 0.408
34.5388 0.460
34.5493 0.603
34.5598 0.664
34.5703 0.664
34.5808 0.531
34.5914 0.603
34.6019 0.674
34.6124 0.582
34.6229 0.654
34.6335 0.694
34.6440 0.633
34.6545 0.592
34.6650 0.449
34.6756 0.572
34.6861 0.694
34.6966 0.470
34.7071 0.592
34.7176 0.449
34.7282 0.521
34.7387 0.439
34.7492 0.439
34.7597 0.490
34.7703 0.398
34.7808 0.470
34.7913 0.276
34.8018 0.449
34.8123 0.388
34.8229 0.327
34.8334 0.337
34.8439 0.286
34.8544 0.368
34.8650 0.388
34.8755 0.286
34.8860 0.286
34.8965 0.266
34.9070 0.327
34.9176 0.327
34.9281 0.408
34.9386 0.317
34.9491 0.368
34.9597 0.368
34.9702 0.419
34.9807 0.368
34.9912 0.235
35.0018 0.266
35.0123 0.306
35.0228 0.439
35.0333 0.429
35.0438 0.460
35.0544 0.460
35.0649 0.480
35.0754 0.317
35.0859 0.449
35.0965 0.368
35.1070 0.541
35.1175 0.337
35.1280 0.306
35.1385 0.562
35.1491 0.480
35.1596 0.378
35.1701 0.480
35.1806 0.449
35.1912 0.378
35.2017 0.480
35.2122 0.572
35.2227 0.439
35.2332 0.592
35.2438 0.633
35.2543 0.582
35.2648 0.674
35.2753 0.684
35.2859 0.613
35.2964 0.848
35.3069 0.827
35.3174 0.899
35.3280 0.919
35.3385 0.786
35.3490 0.960
35.3595 1.021
35.3700 1.246
35.3806 1.246
35.3911 1.297
35.4016 1.542
35.4121 1.491
35.4227 1.787
35.4332 1.940
35.4437 2.002
35.4542 2.369
35.4647 2.298
35.4753 3.145
35.4858 3.339
35.4963 4.167
35.5068 4.728
35.5174 5.362
35.5279 5.719
35.5384 6.893
35.5489 8.313
35.5595 9.508
35.5700 10.325
35.5805 11.734
35.5910 14.481
35.6015 15.829
35.6121 17.116
35.6226 18.505
35.6331 19.720
35.6436 21.007
35.6542 21.446
35.6647 20.445
35.6752 19.342
35.6857 17.259
35.6962 16.656
35.7068 15.257
35.7173 13.215
35.7278 11.663
35.7383 10.172
35.7489 8.640
35.7594 7.547
35.7699 6.720
35.7804 6.087
35.7909 5.014
35.8015 4.116
35.8120 3.932
35.8225 3.687
35.8330 3.105
35.8436 2.870
35.8541 2.400
35.8646 2.431
35.8751 1.593
35.8857 1.767
35.8962 1.460
35.9067 1.450
35.9172 1.144
35.9277 1.031
35.9383 1.093
35.9488 1.031
35.9593 0.980
35.9698 0.888
35.9804 0.970
35.9909 0.817
36.0014 0.848
36.0119 0.929
36.0224 0.766
36.0330 0.603
36.0435 0.592
36.0540 0.654
36.0645 0.735
36.0751 0.633
36.0856 0.470
36.0961 0.500
36.1066 0.490
36.1171 0.582
36.1277 0.470
36.1382 0.408
36.1487 0.623
36.1592 0.511
36.1698 0.613
36.1803 0.562
36.1908 0.654
36.2013 0.562
36.2119 0.500
36.2224 0.551
36.2329 0.480
36.2434 0.511
36.2539 0.592
36.2645 0.531
36.2750 0.541
36.2855 0.603
36.2960 0.633
36.3066 0.664
36.3171 0.664
36.3276 0.756
36.3381 0.511
36.3486 0.623
36.3592 0.654
36.3697 0.776
36.3802 0.878
36.3907 0.899
36.4013 0.950
36.4118 1.154
36.4223 1.195
36.4328 1.154
36.4434 1.491
36.4539 1.552
36.4644 1.910
36.4749 1.971
36.4854 1.961
36.4960 2.635
36.5065 2.645
36.5170 2.717
36.5275 3.339
36.5381 3.860
36.5486 4.167
36.5591 4.289
36.5696 4.779
36.5801 5.596
36.5907 5.954
36.6012 5.515
36.6117 6.066
36.6222 5.882
36.6328 6.352
36.6433 6.005
36.6538 5.668
36.6643 5.270
36.6748 4.779
36.6854 4.555
36.6959 4.116
36.7064 3.482
36.7169 3.258
36.7275 2.441
36.7380 2.482
36.7485 2.042
36.7590 1.971
36.7696 1.757
36.7801 1.471
36.7906 1.287
36.8011 1.164
36.8116 1.185
36.8222 0.950
36.8327 0.919
36.8432 0.756
36.8537 0.756
36.8643 0.623
36.8748 0.827
36.8853 0.582
36.8958 0.480
36.9063 0.511
36.9169 0.551
36.9274 0.408
36.9379 0.429
36.9484 0.368
36.9590 0.398
36.9695 0.327
36.9800 0.368
36.9905 0.357
37.0010 0.317
37.0116 0.398
37.0221 0.398
37.0326 0.388
37.0431 0.245
37.0537 0.317
37.0642 0.419
37.0747 0.276
37.0852 0.388
37.0958 0.337
37.1063 0.398
37.1168 0.266
37.1273 0.266
37.1378 0.204
37.1484 0.306
37.1589 0.296
37.1694 0.286
37.1799 0.378
37.1905 0.245
37.2010 0.235
37.2115 0.286
37.2220 0.378
37.2325 0.214
37.2431 0.225
37.2536 0.214
37.2641 0.255
37.2746 0.327
37.2852 0.235
37.2957 0.337
37.3062 0.225
37.3167 0.174
37.3273 0.235
37.3378 0.214
37.3483 0.245
37.3588 0.296
37.3693 0.347
37.3799 0.286
37.3904 0.276
37.4009 0.174
37.4114 0.245
37.4220 0.286
37.4325 0.286
37.4430 0.214
37.4535 0.306
37.4640 0.317
37.4746 0.296
37.4851 0.327
37.4956 0.327
37.5061 0.429
37.5167 0.286
37.5272 0.317
37.5377 0.286
37.5482 0.245
37.5587 0.317
37.5693 0.337
37.5798 0.266
37.5903 0.296
37.6008 0.337
37.6114 0.429
37.6219 0.286
37.6324 0.398
37.6429 0.511
37.6535 0.470
37.6640 0.490
37.6745 0.398
37.6850 0.419
37.6955 0.449
37.7061 0.460
37.7166 0.490
37.7271 0.419
37.7376 0.613
37.7482 0.582
37.7587 0.786
37.7692 0.858
37.7797 0.776
37.7902 0.919
37.8008 0.980
37.8113 1.287
37.8218 1.491
37.8323 1.603
37.8429 1.501
37.8534 1.716
37.8639 2.124
37.8744 2.563
37.8849 2.655
37.8955 3.074
37.9060 3.309
37.9165 3.830
37.9270 4.310
37.9376 4.555
37.9481 4.585
37.9586 4.636
37.9691 4.473
37.9797 4.442
37.9902 4.095
38.0007 4.085
38.0112 3.493
38.0217 3.115
38.0323 2.604
38.0428 2.471
38.0533 2.185
38.0638 1.787
38.0744 1.542
38.0849 1.348
38.0954 1.185
38.1059 1.297
38.1164 1.123
38.1270 1.062
38.1375 0.817
38.1480 0.715
38.1585 0.633
38.1691 0.684
38.1796 0.674
38.1901 0.572
38.2006 0.531
38.2112 0.470
38.2217 0.511
38.2322 0.511
38.2427 0.500
38.2532 0.429
38.2638 0.357
38.2743 0.388
38.2848 0.439
38.2953 0.408
38.3059 0.500
38.3164 0.470
38.3269 0.408
38.3374 0.521
38.3479 0.592
38.3585 0.490
38.3690 0.460
38.3795 0.490
38.3900 0.357
38.4006 0.388
38.4111 0.357
38.4216 0.266
38.4321 0.429
38.4426 0.245
38.4532 0.357
38.4637 0.296
38.4742 0.194
38.4847 0.174
38.4953 0.266
38.5058 0.296
38.5163 0.368
38.5268 0.317
38.5374 0.184
38.5479 0.306
38.5584 0.204
38.5689 0.163
38.5794 0.174
38.5900 0.163
38.6005 0.296
38.6110 0.286
38.6215 0.225
38.6321 0.235
38.6426 0.214
38.6531 0.194
38.6636 0.194
38.6741 0.204
38.6847 0.225
38.6952 0.184
38.7057 0.204
38.7162 0.235
38.7268 0.255
38.7373 0.255
38.7478 0.266
38.7583 0.296
38.7689 0.184
38.7794 0.266
38.7899 0.174
38.8004 0.214
38.8109 0.174
38.8215 0.245
38.8320 0.266
38.8425 0.153
38.8530 0.204
38.8636 0.204
38.8741 0.286
38.8846 0.266
38.8951 0.214
38.9056 0.255
38.9162 0.266
38.9267 0.174
38.9372 0.327
38.9477 0.204
38.9583 0.347
38.9688 0.296
38.9793 0.306
38.9898 0.204
39.0003 0.327
39.0109 0.225
39.0214 0.245
39.0319 0.184
39.0424 0.276
39.0530 0.245
39.0635 0.286
39.0740 0.306
39.0845 0.276
39.0951 0.286
39.1056 0.296
39.1161 0.347
39.1266 0.531
39.1371 0.388
39.1477 0.296
39.1582 0.562
39.1687 0.439
39.1792 0.541
39.1898 0.460
39.2003 0.674
39.2108 0.603
39.2213 0.674
39.2318 0.664
39.2424 0.888
39.2529 1.021
39.2634 0.909
39.2739 1.297
39.2845 1.460
39.2950 1.563
39.3055 1.634
39.3160 1.930
39.3265 2.318
39.3371 2.277
39.3476 2.686
39.3581 2.645
39.3686 2.839
39.3792 2.747
39.3897 2.584
39.4002 2.522
39.4107 2.267
39.4213 2.543
39.4318 2.369
39.4423 2.073
39.4528 1.716
39.4633 1.573
39.4739 1.348
39.4844 1.144
39.4949 1.420
39.5054 1.225
39.5160 1.420
39.5265 1.144
39.5370 1.225
39.5475 1.307
39.5580 1.154
39.5686 1.317
39.5791 1.583
39.5896 1.552
39.6001 1.307
39.6107 1.583
39.6212 1.736
39.6317 2.185
39.6422 2.277
39.6528 2.369
39.6633 2.737
39.6738 2.808
39.6843 3.248
39.6948 3.605
39.7054 3.411
39.7159 3.789
39.7264 3.758
39.7369 4.177
39.7475 4.208
39.7580 3.830
39.7685 4.044
39.7790 4.391
39.7895 3.983
39.8001 4.248
39.8106 4.585
39.8211 4.800
39.8316 4.759
39.8422 4.453
39.8527 4.994
39.8632 4.810
39.8737 4.871
39.8842 4.259
39.8948 4.320
39.9053 3.554
39.9158 3.615
39.9263 3.115
39.9369 2.900
39.9474 2.390
39.9579 2.002
39.9684 2.063
39.9790 1.420
39.9895 1.511
40.0000 1.297
40.0105 1.062
40.0210 1.072
40.0316 0.940
40.0421 0.940
40.0526 0.878
40.0631 0.725
40.0737 0.766
40.0842 0.715
40.0947 0.470
40.1052 0.470
40.1157 0.541
40.1263 0.449
40.1368 0.449
40.1473 0.408
40.1578 0.429
40.1684 0.327
40.1789 0.357
40.1894 0.266
40.1999 0.286
40.2104 0.296
40.2210 0.184
40.2315 0.357
40.2420 0.286
40.2525 0.317
40.2631 0.255
40.2736 0.306
40.2841 0.204
40.2946 0.255
40.3052 0.419
40.3157 0.235
40.3262 0.327
40.3367 0.255
40.3472 0.214
40.3578 0.296
40.3683 0.204
40.3788 0.347
40.3893 0.225
40.3999 0.317
40.4104 0.235
40.4209 0.286
40.4314 0.214
40.4419 0.214
40.4525 0.143
40.4630 0.225
40.4735 0.245
40.4840 0.214
40.4946 0.133
40.5051 0.163
40.5156 0.255
40.5261 0.276
40.5367 0.235
40.5472 0.204
40.5577 0.153
40.5682 0.153
40.5787 0.153
40.5893 0.245
40.5998 0.174
40.6103 0.245
40.6208 0.204
40.6314 0.143
40.6419 0.286
40.6524 0.163
40.6629 0.163
40.6734 0.184
40.6840 0.204
40.6945 0.153
40.7050 0.214
40.7155 0.133
40.7261 0.225
40.7366 0.286
40.7471 0.184
40.7576 0.112
40.7681 0.225
40.7787 0.174
40.7892 0.266
40.7997 0.174
40.8102 0.266
40.8208 0.225
40.8313 0.214
40.8418 0.245
40.8523 0.245
40.8629 0.266
40.8734 0.194
40.8839 0.174
40.8944 0.163
40.9049 0.184
40.9155 0.174
40.9260 0.225
40.9365 0.153
40.9470 0.123
40.9576 0.184
40.9681 0.174
40.9786 0.163
40.9891 0.143
40.9996 0.143
41.0102 0.204
41.0207 0.194
41.0312 0.174
41.0417 0.174
41.0523 0.123
41.0628 0.143
41.0733 0.204
41.0838 0.204
41.0943 0.163
41.1049 0.235
41.1154 0.174
41.1259 0.153
41.1364 0.276
41.1470 0.143
41.1575 0.194
41.1680 0.133
41.1785 0.123
41.1891 0.123
41.1996 0.184
41.2101 0.184
41.2206 0.204
41.2311 0.184
41.2417 0.133
41.2522 0.184
41.2627 0.214
41.2732 0.194
41.2838 0.296
41.2943 0.225
41.3048 0.174
41.3153 0.266
41.3258 0.204
41.3364 0.123
41.3469 0.255
41.3574 0.194
41.3679 0.174
41.3785 0.286
41.3890 0.214
41.3995 0.092
41.4100 0.204
41.4206 0.235
41.4311 0.194
41.4416 0.245
41.4521 0.153
41.4626 0.204
41.4732 0.184
41.4837 0.163
41.4942 0.184
41.5047 0.153
41.5153 0.225
41.5258 0.153
41.5363 0.204
41.5468 0.153
41.5573 0.143
41.5679 0.163
41.5784 0.163
41.5889 0.225
41.5994 0.184
41.6100 0.245
41.6205 0.245
41.6310 0.184
41.6415 0.296
41.6520 0.184
41.6626 0.194
41.6731 0.163
41.6836 0.143
41.6941 0.214
41.7047 0.266
41.7152 0.204
41.7257 0.153
41.7362 0.184
41.7468 0.163
41.7573 0.163
41.7678 0.255
41.7783 0.235
41.7888 0.163
41.7994 0.235
41.8099 0.266
41.8204 0.204
41.8309 0.235
41.8415 0.204
41.8520 0.174
41.8625 0.204
41.8730 0.276
41.8835 0.194
41.8941 0.204
41.9046 0.306
41.9151 0.245
41.9256 0.296
41.9362 0.255
41.9467 0.296
41.9572 0.357
41.9677 0.266
41.9783 0.327
41.9888 0.276
41.9993 0.347
42.0098 0.439
42.0203 0.378
42.0309 0.419
42.0414 0.460
42.0519 0.541
42.0624 0.460
42.0730 0.439
42.0835 0.603
42.0940 0.623
42.1045 0.725
42.1150 0.909
42.1256 0.797
42.1361 0.817
42.1466 1.174
42.1571 1.225
42.1677 1.552
42.1782 1.746
42.1887 1.746
42.1992 2.042
42.2097 2.124
42.2203 2.829
42.2308 3.033
42.2413 3.452
42.2518 3.288
42.2624 3.288
42.2729 3.676
42.2834 3.748
42.2939 3.472
42.3045 3.319
42.3150 3.207
42.3255 2.911
42.3360 3.176
42.3465 2.696
42.3571 2.604
42.3676 2.308
42.3781 1.828
42.3886 1.746
42.3992 1.705
42.4097 1.491
42.4202 0.980
42.4307 1.123
42.4412 1.225
42.4518 0.858
42.4623 0.654
42.4728 0.674
42.4833 0.592
42.4939 0.582
42.5044 0.470
42.5149 0.521
42.5254 0.531
42.5359 0.398
42.5465 0.419
42.5570 0.429
42.5675 0.286
42.5780 0.378
42.5886 0.266
42.5991 0.306
42.6096 0.408
42.6201 0.204
42.6307 0.266
42.6412 0.225
42.6517 0.276
42.6622 0.255
42.6727 0.398
42.6833 0.194
42.6938 0.276
42.7043 0.266
42.7148 0.296
42.7254 0.296
42.7359 0.245
42.7464 0.225
42.7569 0.225
42.7674 0.296
42.7780 0.184
42.7885 0.163
42.7990 0.266
42.8095 0.214
42.8201 0.163
42.8306 0.174
42.8411 0.204
42.8516 0.225
42.8622 0.163
42.8727 0.214
42.8832 0.112
42.8937 0.163
42.9042 0.174
42.9148 0.133
42.9253 0.153
42.9358 0.204
42.9463 0.194
42.9569 0.153
42.9674 0.143
42.9779 0.245
42.9884 0.225
42.9989 0.133
43.0095 0.112
43.0200 0.194
43.0305 0.225
43.0410 0.204
43.0516 0.061
43.0621 0.214
43.0726 0.194
43.0831 0.184
43.0936 0.143
43.1042 0.102
43.1147 0.235
43.1252 0.245
43.1357 0.123
43.1463 0.214
43.1568 0.235
43.1673 0.204
43.1778 0.225
43.1884 0.194
43.1989 0.102
43.2094 0.133
43.2199 0.225
43.2304 0.214
43.2410 0.174
43.2515 0.184
43.2620 0.133
43.2725 0.133
43.2831 0.143
43.2936 0.143
43.3041 0.194
43.3146 0.235
43.3251 0.245
43.3357 0.163
43.3462 0.133
43.3567 0.092
43.3672 0.204
43.3778 0.112
43.3883 0.174
43.3988 0.225
43.4093 0.204
43.4198 0.163
43.4304 0.174
43.4409 0.194
43.4514 0.163
43.4619 0.194
43.4725 0.153
43.4830 0.255
43.4935 0.163
43.5040 0.174
43.5146 0.204
43.5251 0.194
43.5356 0.235
43.5461 0.163
43.5566 0.174
43.5672 0.235
43.5777 0.123
43.5882 0.153
43.5987 0.204
43.6093 0.204
43.6198 0.133
43.6303 0.174
43.6408 0.133
43.6513 0.174
43.6619 0.153
43.6724 0.194
43.6829 0.225
43.6934 0.163
43.7040 0.174
43.7145 0.194
43.7250 0.092
43.7355 0.123
43.7461 0.133
43.7566 0.174
43.7671 0.225
43.7776 0.133
43.7881 0.184
43.7987 0.184
43.8092 0.143
43.8197 0.184
43.8302 0.174
43.8408 0.184
43.8513 0.194
43.8618 0.133
43.8723 0.184
43.8828 0.112
43.8934 0.204
43.9039 0.123
43.9144 0.214
43.9249 0.102
43.9355 0.184
43.9460 0.225
43.9565 0.163
43.9670 0.143
43.9775 0.184
43.9881 0.143
43.9986 0.204
44.0091 0.174
44.0196 0.296
44.0302 0.214
44.0407 0.204
44.0512 0.214
44.0617 0.153
44.0723 0.163
44.0828 0.204
44.0933 0.174
44.1038 0.194
44.1143 0.225
44.1249 0.174
44.1354 0.184
44.1459 0.235
44.1564 0.214
44.1670 0.266
44.1775 0.306
44.1880 0.306
44.1985 0.306
44.2090 0.266
44.2196 0.204
44.2301 0.255
44.2406 0.266
44.2511 0.306
44.2617 0.327
44.2722 0.419
44.2827 0.388
44.2932 0.368
44.3037 0.296
44.3143 0.480
44.3248 0.296
44.3353 0.521
44.3458 0.572
44.3564 0.541
44.3669 0.643
44.3774 0.776
44.3879 0.827
44.3985 0.766
44.4090 0.929
44.4195 0.960
44.4300 0.940
44.4405 1.072
44.4511 1.225
44.4616 1.174
44.4721 1.215
44.4826 1.113
44.4932 1.205
44.5037 1.021
44.5142 1.123
44.5247 1.031
44.5352 0.888
44.5458 0.725
44.5563 0.817
44.5668 1.001
44.5773 0.797
44.5879 0.694
44.5984 0.480
44.6089 0.541
44.6194 0.398
44.6300 0.460
44.6405 0.480
44.6510 0.378
44.6615 0.470
44.6720 0.347
44.6826 0.460
44.6931 0.337
44.7036 0.327
44.7141 0.286
44.7247 0.419
44.7352 0.286
44.7457 0.286
44.7562 0.184
44.7667 0.317
44.7773 0.225
44.7878 0.204
44.7983 0.357
44.8088 0.347
44.8194 0.306
44.8299 0.204
44.8404 0.235
44.8509 0.266
44.8614 0.255
44.8720 0.388
44.8825 0.296
44.8930 0.449
44.9035 0.449
44.9141 0.419
44.9246 0.562
44.9351 0.603
44.9456 0.531
44.9562 0.735
44.9667 0.562
44.9772 0.776
44.9877 0.766
44.9982 0.827
45.0088 1.021
45.0193 1.072
45.0298 0.991
45.0403 1.001
45.0509 0.919
45.0614 0.940
45.0719 0.674
45.0824 0.970
45.0929 0.786
45.1035 0.756
45.1140 0.715
45.1245 0.664
45.1350 0.582
45.1456 0.511
45.1561 0.408
45.1666 0.398
45.1771 0.449
45.1877 0.368
45.1982 0.378
45.2087 0.317
45.2192 0.204
45.2297 0.306
45.2403 0.214
45.2508 0.347
45.2613 0.337
45.2718 0.194
45.2824 0.174
45.2929 0.276
45.3034 0.204
45.3139 0.204
45.3244 0.153
45.3350 0.163
45.3455 0.317
45.3560 0.194
45.3665 0.194
45.3771 0.225
45.3876 0.133
45.3981 0.255
45.4086 0.225
45.4191 0.102
45.4297 0.153
45.4402 0.133
45.4507 0.235
45.4612 0.184
45.4718 0.112
45.4823 0.204
45.4928 0.194
45.5033 0.143
45.5139 0.153
45.5244 0.163
45.5349 0.245
45.5454 0.112
45.5559 0.123
45.5665 0.123
45.5770 0.225
45.5875 0.133
45.5980 0.153
45.6086 0.255
45.6191 0.143
45.6296 0.112
45.6401 0.071
45.6506 0.163
45.6612 0.266
45.6717 0.184
45.6822 0.174
45.6927 0.184
45.7033 0.204
45.7138 0.184
45.7243 0.204
45.7348 0.123
45.7453 0.225
45.7559 0.194
45.7664 0.214
45.7769 0.143
45.7874 0.133
45.7980 0.204
45.8085 0.153
45.8190 0.143
45.8295 0.143
45.8401 0.153
45.8506 0.153
45.8611 0.133
45.8716 0.184
45.8821 0.184
45.8927 0.163
45.9032 0.163
45.9137 0.163
45.9242 0.184
45.9348 0.143
45.9453 0.184
45.9558 0.163
45.9663 0.143
45.9768 0.102
45.9874 0.123
45.9979 0.112
46.0084 0.163
46.0189 0.133
46.0295 0.163
46.0400 0.143
46.0505 0.204
46.0610 0.163
46.0716 0.194
46.0821 0.163
46.0926 0.143
46.1031 0.214
46.1136 0.143
46.1242 0.163
46.1347 0.214
46.1452 0.266
46.1557 0.174
46.1663 0.163
46.1768 0.133
46.1873 0.174
46.1978 0.286
46.2083 0.174
46.2189 0.255
46.2294 0.225
46.2399 0.225
46.2504 0.245
46.2610 0.337
46.2715 0.255
46.2820 0.255
46.2925 0.347
46.3030 0.398
46.3136 0.327
46.3241 0.347
46.3346 0.521
46.3451 0.408
46.3557 0.408
46.3662 0.551
46.3767 0.500
46.3872 0.551
46.3978 0.500
46.4083 0.490
46.4188 0.643
46.4293 0.654
46.4398 0.439
46.4504 0.500
46.4609 0.511
46.4714 0.368
46.4819 0.357
46.4925 0.408
46.5030 0.511
46.5135 0.368
46.5240 0.368
46.5345 0.214
46.5451 0.296
46.5556 0.327
46.5661 0.306
46.5766 0.276
46.5872 0.286
46.5977 0.184
46.6082 0.276
46.6187 0.214
46.6292 0.255
46.6398 0.214
46.6503 0.214
46.6608 0.174
46.6713 0.204
46.6819 0.306
46.6924 0.184
46.7029 0.184
46.7134 0.225
46.7240 0.123
46.7345 0.153
46.7450 0.133
46.7555 0.194
46.7660 0.194
46.7766 0.153
46.7871 0.174
46.7976 0.133
46.8081 0.143
46.8187 0.184
46.8292 0.163
46.8397 0.174
46.8502 0.133
46.8607 0.143
46.8713 0.296
46.8818 0.174
46.8923 0.245
46.9028 0.163
46.9134 0.184
46.9239 0.174
46.9344 0.123
46.9449 0.174
46.9555 0.194
46.9660 0.214
46.9765 0.266
46.9870 0.163
46.9975 0.194
47.0081 0.133
47.0186 0.112
47.0291 0.204
47.0396 0.204
47.0502 0.184
47.0607 0.133
47.0712 0.184
47.0817 0.204
47.0922 0.153
47.1028 0.174
47.1133 0.071
47.1238 0.214
47.1343 0.071
47.1449 0.153
47.1554 0.163
47.1659 0.153
47.1764 0.204
47.1869 0.153
47.1975 0.225
47.2080 0.163
47.2185 0.143
47.2290 0.133
47.2396 0.163
47.2501 0.123
47.2606 0.133
47.2711 0.153
47.2817 0.194
47.2922 0.153
47.3027 0.163
47.3132 0.194
47.3237 0.153
47.3343 0.194
47.3448 0.143
47.3553 0.174
47.3658 0.133
47.3764 0.143
47.3869 0.184
47.3974 0.112
47.4079 0.133
47.4184 0.214
47.4290 0.082
47.4395 0.153
47.4500 0.133
47.4605 0.204
47.4711 0.143
47.4816 0.204
47.4921 0.184
47.5026 0.184
47.5131 0.214
47.5237 0.163
47.5342 0.123
47.5447 0.153
47.5552 0.184
47.5658 0.204
47.5763 0.123
47.5868 0.143
47.5973 0.286
47.6079 0.204
47.6184 0.245
47.6289 0.184
47.6394 0.153
47.6499 0.184
47.6605 0.214
47.6710 0.194
47.6815 0.143
47.6920 0.112
47.7026 0.296
47.7131 0.184
47.7236 0.143
47.7341 0.163
47.7446 0.184
47.7552 0.143
47.7657 0.184
47.7762 0.092
47.7867 0.174
47.7973 0.133
47.8078 0.153
47.8183 0.184
47.8288 0.153
47.8394 0.123
47.8499 0.194
47.8604 0.204
47.8709 0.174
47.8814 0.245
47.8920 0.163
47.9025 0.214
47.9130 0.225
47.9235 0.214
47.9341 0.204
47.9446 0.276
47.9551 0.194
47.9656 0.327
47.9761 0.266
47.9867 0.184
47.9972 0.235
48.0077 0.296
48.0182 0.266
48.0288 0.163
48.0393 0.388
48.0498 0.327
48.0603 0.398
48.0708 0.266
48.0814 0.439
48.0919 0.357
48.1024 0.480
48.1129 0.419
48.1235 0.429
48.1340 0.511
48.1445 0.490
48.1550 0.378
48.1656 0.368
48.1761 0.449
48.1866 0.317
48.1971 0.255
48.2076 0.306
48.2182 0.235
48.2287 0.306
48.2392 0.378
48.2497 0.357
48.2603 0.276
48.2708 0.286
48.2813 0.204
48.2918 0.337
48.3023 0.194
48.3129 0.184
48.3234 0.245
48.3339 0.204
48.3444 0.245
48.3550 0.153
48.3655 0.306
48.3760 0.194
48.3865 0.225
48.3970 0.194
48.4076 0.102
48.4181 0.112
48.4286 0.214
48.4391 0.163
48.4497 0.266
48.4602 0.214
48.4707 0.092
48.4812 0.225
48.4918 0.133
48.5023 0.163
48.5128 0.235
48.5233 0.245
48.5338 0.204
48.5444 0.143
48.5549 0.225
48.5654 0.163
48.5759 0.184
48.5865 0.266
48.5970 0.174
48.6075 0.235
48.6180 0.153
48.6285 0.194
48.6391 0.225
48.6496 0.225
48.6601 0.174
48.6706 0.194
48.6812 0.153
48.6917 0.194
48.7022 0.123
48.7127 0.255
48.7233 0.245
48.7338 0.194
48.7443 0.153
48.7548 0.245
48.7653 0.266
48.7759 0.225
48.7864 0.225
48.7969 0.296
48.8074 0.245
48.8180 0.235
48.8285 0.225
48.8390 0.255
48.8495 0.255
48.8600 0.194
48.8706 0.245
48.8811 0.184
48.8916 0.266
48.9021 0.327
48.9127 0.214
48.9232 0.266
48.9337 0.204
48.9442 0.235
48.9547 0.337
48.9653 0.286
48.9758 0.286
48.9863 0.347
48.9968 0.327
49.0074 0.245
49.0179 0.439
49.0284 0.439
49.0389 0.388
49.0495 0.449
49.0600 0.582
49.0705 0.347
49.0810 0.551
49.0915 0.541
49.1021 0.531
49.1126 0.725
49.1231 0.807
49.1336 0.817
49.1442 0.888
49.1547 0.797
49.1652 0.909
49.1757 1.174
49.1862 1.072
49.1968 1.062
49.2073 1.491
49.2178 1.634
49.2283 1.777
49.2389 1.859
49.2494 1.940
49.2599 2.042
49.2704 2.042
49.2810 2.502
49.2915 2.522
49.3020 2.328
49.3125 2.308
49.3230 2.145
49.3336 2.073
49.3441 1.991
49.3546 2.002
49.3651 1.777
49.3757 1.552
49.3862 1.501
49.3967 1.389
49.4072 1.328
49.4177 1.307
49.4283 1.164
49.4388 0.878
49.4493 1.021
49.4598 0.848
49.4704 0.715
49.4809 0.817
49.4914 0.797
49.5019 0.674
49.5124 0.715
49.5230 0.664
49.5335 0.572
49.5440 0.613
49.5545 0.613
49.5651 0.511
49.5756 0.613
49.5861 0.531
49.5966 0.500
49.6072 0.521
49.6177 0.511
49.6282 0.449
49.6387 0.378
49.6492 0.470
49.6598 0.398
49.6703 0.306
49.6808 0.337
49.6913 0.460
49.7019 0.388
49.7124 0.398
49.7229 0.266
49.7334 0.276
49.7439 0.337
49.7545 0.286
49.7650 0.368
49.7755 0.235
49.7860 0.378
49.7966 0.214
49.8071 0.368
49.8176 0.357
49.8281 0.296
49.8386 0.347
49.8492 0.388
49.8597 0.286
49.8702 0.306
49.8807 0.337
49.8913 0.266
49.9018 0.347
49.9123 0.266
49.9228 0.439
49.9334 0.408
49.9439 0.408
49.9544 0.368
49.9649 0.357
49.9754 0.439
49.9860 0.398
49.9965 0.388
50.0070 0.368
50.0175 0.562
50.0281 0.378
50.0386 0.613
50.0491 0.511
50.0596 0.643
50.0701 0.654
50.0807 0.817
50.0912 1.011
50.1017 0.970
50.1122 0.766
50.1228 0.909
50.1333 0.929
50.1438 0.878
50.1543 0.950
50.1649 1.174
50.1754 0.980
50.1859 1.001
50.1964 1.031
50.2069 0.980
50.2175 1.021
50.2280 1.297
50.2385 1.328
50.2490 1.287
50.2596 1.246
50.2701 1.511
50.2806 1.705
50.2911 1.808
50.3016 1.838
50.3122 1.910
50.3227 2.042
50.3332 2.165
50.3437 2.185
50.3543 2.094
50.3648 2.042
50.3753 2.737
50.3858 2.226
50.3963 2.359
50.4069 2.431
50.4174 2.553
50.4279 2.155
50.4384 2.277
50.4490 2.237
50.4595 2.094
50.4700 1.736
50.4805 1.920
50.4911 1.787
50.5016 1.838
50.5121 1.971
50.5226 1.808
50.5331 1.450
50.5437 1.624
50.5542 1.777
50.5647 1.634
50.5752 1.797
50.5858 1.746
50.5963 1.869
50.6068 1.716
50.6173 1.746
50.6278 1.930
50.6384 1.879
50.6489 1.828
50.6594 1.695
50.6699 1.368
50.6805 1.430
50.6910 1.317
50.7015 1.205
50.7120 0.970
50.7225 0.929
50.7331 1.215
50.7436 0.848
50.7541 0.562
50.7646 0.643
50.7752 0.633
50.7857 0.562
50.7962 0.582
50.8067 0.623
50.8173 0.388
50.8278 0.470
50.8383 0.408
50.8488 0.255
50.8593 0.408
50.8699 0.306
50.8804 0.317
50.8909 0.511
50.9014 0.286
50.9120 0.214
50.9225 0.337
50.9330 0.388
50.9435 0.368
50.9540 0.296
50.9646 0.276
50.9751 0.255
50.9856 0.204
50.9961 0.255
51.0067 0.327
51.0172 0.296
51.0277 0.225
51.0382 0.276
51.0488 0.204
51.0593 0.153
51.0698 0.276
51.0803 0.245
51.0908 0.245
51.1014 0.286
51.1119 0.123
51.1224 0.214
51.1329 0.204
51.1435 0.204
51.1540 0.133
51.1645 0.194
51.1750 0.174
51.1855 0.184
51.1961 0.174
51.2066 0.235
51.2171 0.235
51.2276 0.143
51.2382 0.235
51.2487 0.204
51.2592 0.214
51.2697 0.184
51.2802 0.184
51.2908 0.153
51.3013 0.163
51.3118 0.235
51.3223 0.214
51.3329 0.245
51.3434 0.204
51.3539 0.194
51.3644 0.174
51.3750 0.204
51.3855 0.204
51.3960 0.194
51.4065 0.194
51.4170 0.174
51.4276 0.112
51.4381 0.255
51.4486 0.194
51.4591 0.337
51.4697 0.102
51.4802 0.266
51.4907 0.225
51.5012 0.235
51.5117 0.174
51.5223 0.225
51.5328 0.163
51.5433 0.174
51.5538 0.276
51.5644 0.214
51.5749 0.245
51.5854 0.296
51.5959 0.214
51.6064 0.204
51.6170 0.276
51.6275 0.204
51.6380 0.153
51.6485 0.194
51.6591 0.276
51.6696 0.112
51.6801 0.225
51.6906 0.184
51.7012 0.123
51.7117 0.174
51.7222 0.225
51.7327 0.174
51.7432 0.163
51.7538 0.214
51.7643 0.163
51.7748 0.225
51.7853 0.255
51.7959 0.163
51.8064 0.214
51.8169 0.174
51.8274 0.276
51.8379 0.225
51.8485 0.204
51.8590 0.102
51.8695 0.245
51.8800 0.245
51.8906 0.266
51.9011 0.276
51.9116 0.327
51.9221 0.235
51.9327 0.235
51.9432 0.317
51.9537 0.245
51.9642 0.306
51.9747 0.378
51.9853 0.184
51.9958 0.286
52.0063 0.266
52.0168 0.296
52.0274 0.255
52.0379 0.327
52.0484 0.419
52.0589 0.286
52.0694 0.266
52.0800 0.480
52.0905 0.327
52.1010 0.337
52.1115 0.460
52.1221 0.306
52.1326 0.317
52.1431 0.306
52.1536 0.286
52.1641 0.347
52.1747 0.408
52.1852 0.388
52.1957 0.357
52.2062 0.337
52.2168 0.531
52.2273 0.551
52.2378 0.582
52.2483 0.623
52.2589 0.511
52.2694 0.521
52.2799 0.643
52.2904 0.643
52.3009 0.684
52.3115 0.776
52.3220 0.766
52.3325 0.817
52.3430 0.980
52.3536 0.664
52.3641 1.154
52.3746 1.195
52.3851 1.368
52.3956 1.665
52.4062 1.665
52.4167 1.460
52.4272 1.797
52.4377 1.869
52.4483 2.206
52.4588 2.083
52.4693 2.696
52.4798 3.064
52.4904 3.196
52.5009 3.891
52.5114 4.279
52.5219 4.350
52.5324 4.973
52.5430 5.055
52.5535 5.699
52.5640 5.484
52.5745 6.097
52.5851 6.475
52.5956 6.505
52.6061 6.209
52.6166 6.025
52.6271 5.586
52.6377 5.933
52.6482 6.209
52.6587 5.157
52.6692 4.841
52.6798 4.453
52.6903 4.769
52.7008 4.708
52.7113 4.279
52.7218 3.819
52.7324 3.911
52.7429 3.605
52.7534 3.401
52.7639 3.482
52.7745 3.186
52.7850 2.962
52.7955 2.829
52.8060 2.696
52.8166 2.359
52.8271 2.369
52.8376 2.114
52.8481 2.206
52.8586 2.012
52.8692 1.716
52.8797 1.889
52.8902 1.736
52.9007 1.368
52.9113 1.409
52.9218 1.328
52.9323 1.297
52.9428 1.338
52.9533 1.011
52.9639 0.858
52.9744 0.940
52.9849 0.735
52.9954 0.888
53.0060 0.786
53.0165 0.715
53.0270 0.654
53.0375 0.725
53.0480 0.470
53.0586 0.541
53.0691 0.582
53.0796 0.562
53.0901 0.521
53.1007 0.521
53.1112 0.500
53.1217 0.500
53.1322 0.541
53.1428 0.419
53.1533 0.460
53.1638 0.490
53.1743 0.592
53.1848 0.541
53.1954 0.490
53.2059 0.521
53.2164 0.398
53.2269 0.500
53.2375 0.531
53.2480 0.357
53.2585 0.470
53.2690 0.429
53.2795 0.470
53.2901 0.419
53.3006 0.388
53.3111 0.439
53.3216 0.378
53.3322 0.317
53.3427 0.357
53.3532 0.286
53.3637 0.306
53.3743 0.306
53.3848 0.245
53.3953 0.225
53.4058 0.266
53.4163 0.225
53.4269 0.296
53.4374 0.225
53.4479 0.276
53.4584 0.153
53.4690 0.286
53.4795 0.306
53.4900 0.204
53.5005 0.184
53.5110 0.214
53.5216 0.235
53.5321 0.317
53.5426 0.306
53.5531 0.184
53.5637 0.276
53.5742 0.194
53.5847 0.255
53.5952 0.266
53.6057 0.184
53.6163 0.163
53.6268 0.174
53.6373 0.235
53.6478 0.214
53.6584 0.194
53.6689 0.184
53.6794 0.143
53.6899 0.245
53.7005 0.296
53.7110 0.163
53.7215 0.225
53.7320 0.214
53.7425 0.214
53.7531 0.184
53.7636 0.184
53.7741 0.153
53.7846 0.225
53.7952 0.235
53.8057 0.163
53.8162 0.163
53.8267 0.174
53.8372 0.184
53.8478 0.266
53.8583 0.245
53.8688 0.245
53.8793 0.214
53.8899 0.204
53.9004 0.225
53.9109 0.235
53.9214 0.123
53.9319 0.163
53.9425 0.184
53.9530 0.143
53.9635 0.194
53.9740 0.204
53.9846 0.184
53.9951 0.245
54.0056 0.225
54.0161 0.235
54.0267 0.143
54.0372 0.153
54.0477 0.235
54.0582 0.184
54.0687 0.143
54.0793 0.225
54.0898 0.153
54.1003 0.245
54.1108 0.092
54.1214 0.225
54.1319 0.153
54.1424 0.194
54.1529 0.184
54.1634 0.163
54.1740 0.174
54.1845 0.092
54.1950 0.225
54.2055 0.194
54.2161 0.184
54.2266 0.204
54.2371 0.153
54.2476 0.194
54.2582 0.112
54.2687 0.143
54.2792 0.153
54.2897 0.255
54.3002 0.143
54.3108 0.245
54.3213 0.092
54.3318 0.153
54.3423 0.235
54.3529 0.225
54.3634 0.163
54.3739 0.225
54.3844 0.306
54.3949 0.306
54.4055 0.245
54.4160 0.163
54.4265 0.255
54.4370 0.163
54.4476 0.194
54.4581 0.225
54.4686 0.204
54.4791 0.194
54.4896 0.214
54.5002 0.184
54.5107 0.184
54.5212 0.245
54.5317 0.194
54.5423 0.255
54.5528 0.388
54.5633 0.255
54.5738 0.204
54.5844 0.368
54.5949 0.439
54.6054 0.225
54.6159 0.255
54.6264 0.235
54.6370 0.327
54.6475 0.245
54.6580 0.245
54.6685 0.357
54.6791 0.296
54.6896 0.347
54.7001 0.255
54.7106 0.357
54.7211 0.408
54.7317 0.470
54.7422 0.347
54.7527 0.398
54.7632 0.490
54.7738 0.439
54.7843 0.480
54.7948 0.511
54.8053 0.562
54.8158 0.511
54.8264 0.623
54.8369 0.654
54.8474 0.664
54.8579 0.837
54.8685 0.848
54.8790 0.940
54.8895 0.950
54.9000 0.919
54.9106 1.144
54.9211 1.338
54.9316 1.328
54.9421 1.603
54.9526 1.787
54.9632 2.247
54.9737 2.288
54.9842 2.400
54.9947 2.778
55.0053 2.277
55.0158 2.849
55.0263 3.094
55.0368 2.870
55.0473 3.237
55.0579 2.808
55.0684 2.880
55.0789 2.645
55.0894 2.482
55.1000 2.328
55.1105 2.185
55.1210 2.165
55.1315 1.889
55.1421 1.552
55.1526 1.808
55.1631 1.491
55.1736 1.358
55.1841 1.338
55.1947 1.062
55.2052 1.031
55.2157 1.154
55.2262 1.185
55.2368 0.899
55.2473 1.164
55.2578 0.827
55.2683 0.827
55.2788 0.960
55.2894 0.817
55.2999 0.705
55.3104 0.797
55.3209 0.786
55.3315 0.827
55.3420 0.888
55.3525 1.021
55.3630 1.021
55.3735 1.358
55.3841 1.185
55.3946 1.195
55.4051 1.491
55.4156 1.818
55.4262 1.593
55.4367 1.705
55.4472 2.124
55.4577 2.359
55.4683 2.461
55.4788 2.349
55.4893 3.074
55.4998 3.186
55.5103 3.738
55.5209 3.656
55.5314 3.717
55.5419 3.728
55.5524 3.503
55.5630 3.533
55.5735 3.452
55.5840 3.064
55.5945 3.442
55.6050 2.706
55.6156 2.461
55.6261 2.359
55.6366 2.185
55.6471 1.705
55.6577 1.787
55.6682 1.501
55.6787 1.450
55.6892 1.113
55.6998 1.123
55.7103 1.205
55.7208 0.909
55.7313 0.980
55.7418 0.899
55.7524 0.664
55.7629 0.837
55.7734 0.674
55.7839 0.725
55.7945 0.654
55.8050 0.694
55.8155 0.490
55.8260 0.449
55.8365 0.460
55.8471 0.500
55.8576 0.317
55.8681 0.347
55.8786 0.317
55.8892 0.398
55.8997 0.357
55.9102 0.398
55.9207 0.347
55.9312 0.398
55.9418 0.296
55.9523 0.357
55.9628 0.398
55.9733 0.378
55.9839 0.306
55.9944 0.347
56.0049 0.214
56.0154 0.378
56.0260 0.296
56.0365 0.327
56.0470 0.174
56.0575 0.317
56.0680 0.266
56.0786 0.235
56.0891 0.296
56.0996 0.276
56.1101 0.255
56.1207 0.317
56.1312 0.266
56.1417 0.255
56.1522 0.296
56.1627 0.398
56.1733 0.337
56.1838 0.337
56.1943 0.296
56.2048 0.296
56.2154 0.214
56.2259 0.368
56.2364 0.337
56.2469 0.306
56.2574 0.357
56.2680 0.306
56.2785 0.296
56.2890 0.419
56.2995 0.368
56.3101 0.378
56.3206 0.327
56.3311 0.378
56.3416 0.439
56.3522 0.429
56.3627 0.480
56.3732 0.347
56.3837 0.429
56.3942 0.327
56.4048 0.592
56.4153 0.398
56.4258 0.582
56.4363 0.562
56.4469 0.592
56.4574 0.725
56.4679 0.705
56.4784 0.643
56.4889 0.786
56.4995 0.980
56.5100 0.888
56.5205 1.011
56.5310 1.021
56.5416 1.154
56.5521 1.246
56.5626 1.379
56.5731 1.440
56.5837 1.654
56.5942 1.603
56.6047 1.981
56.6152 2.002
56.6257 2.063
56.6363 2.410
56.6468 2.502
56.6573 2.614
56.6678 2.911
56.6784 2.849
56.6889 3.156
56.6994 3.513
56.7099 3.237
56.7204 3.513
56.7310 3.411
56.7415 3.268
56.7520 3.350
56.7625 3.196
56.7731 3.186
56.7836 3.074
56.7941 2.992
56.8046 2.686
56.8151 2.778
56.8257 2.318
56.8362 2.359
56.8467 2.339
56.8572 2.042
56.8678 1.757
56.8783 1.787
56.8888 1.573
56.8993 1.225
56.9099 1.348
56.9204 1.256
56.9309 1.001
56.9414 1.052
56.9519 1.083
56.9625 0.827
56.9730 0.899
56.9835 0.776
56.9940 0.807
57.0046 0.613
57.0151 0.592
57.0256 0.572
57.0361 0.470
57.0466 0.664
57.0572 0.572
57.0677 0.531
57.0782 0.398
57.0887 0.480
57.0993 0.429
57.1098 0.347
57.1203 0.460
57.1308 0.470
57.1413 0.419
57.1519 0.357
57.1624 0.490
57.1729 0.266
57.1834 0.327
57.1940 0.429
57.2045 0.470
57.2150 0.174
57.2255 0.276
57.2361 0.347
57.2466 0.266
57.2571 0.266
57.2676 0.225
57.2781 0.408
57.2887 0.214
57.2992 0.317
57.3097 0.337
57.3202 0.266
57.3308 0.296
57.3413 0.276
57.3518 0.266
57.3623 0.174
57.3728 0.235
57.3834 0.245
57.3939 0.368
57.4044 0.286
57.4149 0.306
57.4255 0.317
57.4360 0.276
57.4465 0.347
57.4570 0.419
57.4676 0.286
57.4781 0.204
57.4886 0.327
57.4991 0.419
57.5096 0.327
57.5202 0.419
57.5307 0.347
57.5412 0.460
57.5517 0.500
57.5623 0.470
57.5728 0.490
57.5833 0.511
57.5938 0.582
57.6043 0.603
57.6149 0.643
57.6254 0.633
57.6359 0.643
57.6464 0.603
57.6570 0.388
57.6675 0.521
57.6780 0.531
57.6885 0.460
57.6990 0.480
57.7096 0.388
57.7201 0.470
57.7306 0.388
57.7411 0.449
57.7517 0.490
57.7622 0.388
57.7727 0.419
57.7832 0.276
57.7938 0.439
57.8043 0.408
57.8148 0.266
57.8253 0.214
57.8358 0.296
57.8464 0.347
57.8569 0.235
57.8674 0.296
57.8779 0.276
57.8885 0.429
57.8990 0.296
57.9095 0.194
57.9200 0.317
57.9305 0.245
57.9411 0.286
57.9516 0.204
57.9621 0.296
57.9726 0.194
57.9832 0.245
57.9937 0.337
58.0042 0.286
58.0147 0.378
58.0252 0.470
58.0358 0.460
58.0463 0.449
58.0568 0.276
58.0673 0.378
58.0779 0.286
58.0884 0.398
58.0989 0.388
58.1094 0.490
58.1200 0.562
58.1305 0.521
58.1410 0.623
58.1515 0.541
58.1620 0.674
58.1726 0.603
58.1831 0.715
58.1936 0.725
58.2041 0.746
58.2147 0.848
58.2252 0.970
58.2357 1.072
58.2462 1.103
58.2567 1.123
58.2673 1.113
58.2778 1.644
58.2883 1.522
58.2988 1.511
58.3094 1.757
58.3199 2.002
58.3304 1.654
58.3409 1.808
58.3515 2.145
58.3620 1.920
58.3725 1.869
58.3830 1.889
58.3935 1.910
58.4041 1.859
58.4146 1.440
58.4251 1.685
58.4356 1.665
58.4462 1.757
58.4567 1.716
58.4672 1.277
58.4777 1.266
58.4882 1.195
58.4988 0.950
58.5093 0.980
58.5198 0.766
58.5303 0.725
58.5409 0.960
58.5514 0.858
58.5619 0.562
58.5724 0.725
58.5829 0.439
58.5935 0.531
58.6040 0.603
58.6145 0.419
58.6250 0.449
58.6356 0.562
58.6461 0.337
58.6566 0.429
58.6671 0.337
58.6777 0.266
58.6882 0.286
58.6987 0.255
58.7092 0.337
58.7197 0.296
58.7303 0.276
58.7408 0.276
58.7513 0.266
58.7618 0.286
58.7724 0.296
58.7829 0.255
58.7934 0.204
58.8039 0.225
58.8144 0.235
58.8250 0.276
58.8355 0.214
58.8460 0.245
58.8565 0.235
58.8671 0.204
58.8776 0.123
58.8881 0.276
58.8986 0.204
58.9091 0.266
58.9197 0.266
58.9302 0.194
58.9407 0.133
58.9512 0.184
58.9618 0.143
58.9723 0.143
58.9828 0.214
58.9933 0.133
59.0039 0.174
59.0144 0.225
59.0249 0.174
59.0354 0.214
59.0459 0.184
59.0565 0.133
59.0670 0.102
59.0775 0.204
59.0880 0.194
59.0986 0.174
59.1091 0.235
59.1196 0.204
59.1301 0.276
59.1406 0.174
59.1512 0.153
59.1617 0.235
59.1722 0.225
59.1827 0.235
59.1933 0.235
59.2038 0.245
59.2143 0.143
59.2248 0.214
59.2354 0.255
59.2459 0.214
59.2564 0.153
59.2669 0.163
59.2774 0.133
59.2880 0.204
59.2985 0.153
59.3090 0.225
59.3195 0.184
59.3301 0.174
59.3406 0.184
59.3511 0.204
59.3616 0.204
59.3721 0.255
59.3827 0.123
59.3932 0.214
59.4037 0.174
59.4142 0.296
59.4248 0.225
59.4353 0.235
59.4458 0.225
59.4563 0.204
59.4668 0.194
59.4774 0.204
59.4879 0.225
59.4984 0.174
59.5089 0.133
59.5195 0.225
59.5300 0.235
59.5405 0.214
59.5510 0.133
59.5616 0.214
59.5721 0.214
59.5826 0.225
59.5931 0.214
59.6036 0.184
59.6142 0.174
59.6247 0.225
59.6352 0.225
59.6457 0.214
59.6563 0.184
59.6668 0.214
59.6773 0.174
59.6878 0.235
59.6983 0.214
59.7089 0.235
59.7194 0.276
59.7299 0.266
59.7404 0.255
59.7510 0.255
59.7615 0.225
59.7720 0.286
59.7825 0.184
59.7931 0.286
59.8036 0.235
59.8141 0.296
59.8246 0.225
59.8351 0.133
59.8457 0.214
59.8562 0.153
59.8667 0.163
59.8772 0.184
59.8878 0.194
59.8983 0.204
59.9088 0.245
59.9193 0.174
59.9298 0.153
59.9404 0.184
59.9509 0.204
59.9614 0.194
59.9719 0.204
59.9825 0.214
59.9930 0.123
60.0035 0.194
60.0140 0.123
60.0245 0.133
60.0351 0.133
60.0456 0.225
60.0561 0.174
60.0666 0.133
60.0772 0.255
60.0877 0.214
60.0982 0.133
60.1087 0.061
60.1193 0.143
60.1298 0.163
60.1403 0.153
60.1508 0.153
60.1613 0.163
60.1719 0.174
60.1824 0.133
60.1929 0.133
60.2034 0.174
60.2140 0.174
60.2245 0.174
60.2350 0.123
60.2455 0.163
60.2560 0.214
60.2666 0.184
60.2771 0.133
60.2876 0.163
60.2981 0.194
60.3087 0.143
60.3192 0.133
60.3297 0.112
60.3402 0.204
60.3507 0.123
60.3613 0.163
60.3718 0.163
60.3823 0.194
60.3928 0.184
60.4034 0.184
60.4139 0.133
60.4244 0.123
60.4349 0.194
60.4455 0.194
60.4560 0.235
60.4665 0.225
60.4770 0.163
60.4875 0.225
60.4981 0.235
60.5086 0.102
60.5191 0.123
60.5296 0.204
60.5402 0.235
60.5507 0.174
60.5612 0.184
60.5717 0.163
60.5822 0.174
60.5928 0.112
60.6033 0.174
60.6138 0.255
60.6243 0.123
60.6349 0.245
60.6454 0.061
60.6559 0.184
60.6664 0.255
60.6770 0.143
60.6875 0.184
60.6980 0.153
60.7085 0.235
60.7190 0.061
60.7296 0.163
60.7401 0.133
60.7506 0.194
60.7611 0.174
60.7717 0.276
60.7822 0.184
60.7927 0.143
60.8032 0.163
60.8137 0.245
60.8243 0.153
60.8348 0.123
60.8453 0.255
60.8558 0.163
60.8664 0.123
60.8769 0.163
60.8874 0.153
60.8979 0.184
60.9084 0.174
60.9190 0.123
60.9295 0.174
60.9400 0.174
60.9505 0.163
60.9611 0.276
60.9716 0.174
60.9821 0.286
60.9926 0.174
61.0032 0.194
61.0137 0.255
61.0242 0.163
61.0347 0.174
61.0452 0.225
61.0558 0.235
61.0663 0.235
61.0768 0.112
61.0873 0.194
61.0979 0.235
61.1084 0.214
61.1189 0.133
61.1294 0.266
61.1399 0.214
61.1505 0.245
61.1610 0.214
61.1715 0.163
61.1820 0.286
61.1926 0.276
61.2031 0.286
61.2136 0.276
61.2241 0.255
61.2346 0.245
61.2452 0.306
61.2557 0.286
61.2662 0.286
61.2767 0.286
61.2873 0.204
61.2978 0.327
61.3083 0.327
61.3188 0.337
61.3294 0.368
61.3399 0.266
61.3504 0.306
61.3609 0.327
61.3714 0.357
61.3820 0.317
61.3925 0.449
61.4030 0.439
61.4135 0.398
61.4241 0.419
61.4346 0.419
61.4451 0.562
61.4556 0.613
61.4661 0.531
61.4767 0.460
61.4872 0.664
61.4977 0.419
61.5082 0.807
61.5188 0.643
61.5293 0.858
61.5398 0.929
61.5503 1.001
61.5609 0.807
61.5714 1.031
61.5819 0.970
61.5924 1.062
61.6029 1.154
61.6135 1.134
61.6240 1.348
61.6345 1.583
61.6450 1.348
61.6556 1.736
61.6661 1.695
61.6766 1.746
61.6871 2.216
61.6976 2.349
61.7082 2.451
61.7187 2.410
61.7292 2.870
61.7397 2.717
61.7503 3.105
61.7608 2.962
61.7713 3.411
61.7818 3.319
61.7923 3.789
61.8029 3.697
61.8134 4.003
61.8239 3.574
61.8344 3.922
61.8450 3.799
61.8555 3.932
61.8660 4.269
61.8765 4.330
61.8871 3.758
61.8976 3.840
61.9081 3.738
61.9186 3.840
61.9291 3.840
61.9397 3.768
61.9502 3.411
61.9607 3.207
61.9712 3.319
61.9818 3.411
61.9923 3.370
62.0028 2.778
62.0133 2.768
62.0238 2.900
62.0344 2.859
62.0449 2.819
62.0554 2.890
62.0659 2.676
62.0765 2.533
62.0870 2.696
62.0975 2.696
62.1080 2.441
62.1185 2.584
62.1291 2.635
62.1396 3.043
62.1501 2.931
62.1606 2.992
62.1712 3.135
62.1817 2.625
62.1922 2.747
62.2027 2.410
62.2133 2.778
62.2238 2.563
62.2343 2.461
62.2448 2.441
62.2553 2.114
62.2659 1.859
62.2764 1.736
62.2869 1.450
62.2974 1.593
62.3080 1.195
62.3185 1.256
62.3290 1.093
62.3395 0.980
62.3500 0.980
62.3606 0.797
62.3711 0.817
62.3816 0.991
62.3921 0.623
62.4027 0.776
62.4132 0.694
62.4237 0.511
62.4342 0.562
62.4448 0.500
62.4553 0.500
62.4658 0.408
62.4763 0.511
62.4868 0.531
62.4974 0.408
62.5079 0.511
62.5184 0.378
62.5289 0.541
62.5395 0.378
62.5500 0.357
62.5605 0.347
62.5710 0.266
62.5815 0.266
62.5921 0.276
62.6026 0.255
62.6131 0.266
62.6236 0.327
62.6342 0.214
62.6447 0.296
62.6552 0.245
62.6657 0.245
62.6762 0.255
62.6868 0.194
62.6973 0.235
62.7078 0.163
62.7183 0.255
62.7289 0.225
62.7394 0.296
62.7499 0.184
62.7604 0.286
62.7710 0.214
62.7815 0.194
62.7920 0.174
62.8025 0.163
62.8130 0.194
62.8236 0.194
62.8341 0.225
62.8446 0.174
62.8551 0.245
62.8657 0.266
62.8762 0.255
62.8867 0.225
62.8972 0.194
62.9077 0.266
62.9183 0.296
62.9288 0.143
62.9393 0.194
62.9498 0.306
62.9604 0.204
62.9709 0.153
62.9814 0.214
62.9919 0.163
63.0025 0.163
63.0130 0.235
63.0235 0.204
63.0340 0.214
63.0445 0.184
63.0551 0.255
63.0656 0.194
63.0761 0.184
63.0866 0.184
63.0972 0.184
63.1077 0.204
63.1182 0.184
63.1287 0.112
63.1392 0.153
63.1498 0.153
63.1603 0.143
63.1708 0.123
63.1813 0.143
63.1919 0.174
63.2024 0.143
63.2129 0.174
63.2234 0.174
63.2339 0.133
63.2445 0.204
63.2550 0.174
63.2655 0.214
63.2760 0.194
63.2866 0.184
63.2971 0.153
63.3076 0.225
63.3181 0.214
63.3287 0.163
63.3392 0.194
63.3497 0.194
63.3602 0.153
63.3707 0.163
63.3813 0.184
63.3918 0.153
63.4023 0.214
63.4128 0.133
63.4234 0.123
63.4339 0.153
63.4444 0.184
63.4549 0.163
63.4654 0.184
63.4760 0.174
63.4865 0.163
63.4970 0.123
63.5075 0.296
63.5181 0.194
63.5286 0.153
63.5391 0.184
63.5496 0.143
63.5601 0.163
63.5707 0.214
63.5812 0.153
63.5917 0.214
63.6022 0.143
63.6128 0.153
63.6233 0.163
63.6338 0.153
63.6443 0.255
63.6549 0.153
63.6654 0.092
63.6759 0.204
63.6864 0.214
63.6969 0.235
63.7075 0.225
63.7180 0.204
63.7285 0.255
63.7390 0.245
63.7496 0.204
63.7601 0.204
63.7706 0.204
63.7811 0.286
63.7916 0.235
63.8022 0.184
63.8127 0.153
63.8232 0.245
63.8337 0.327
63.8443 0.327
63.8548 0.235
63.8653 0.276
63.8758 0.296
63.8864 0.296
63.8969 0.388
63.9074 0.337
63.9179 0.398
63.9284 0.408
63.9390 0.398
63.9495 0.460
63.9600 0.551
63.9705 0.460
63.9811 0.347
63.9916 0.623
64.0021 0.531
64.0126 0.592
64.0231 0.684
64.0337 0.551
64.0442 0.664
64.0547 0.715
64.0652 0.582
64.0758 0.531
64.0863 0.592
64.0968 0.480
64.1073 0.521
64.1178 0.633
64.1284 0.551
64.1389 0.470
64.1494 0.521
64.1599 0.500
64.1705 0.439
64.1810 0.460
64.1915 0.521
64.2020 0.388
64.2126 0.347
64.2231 0.470
64.2336 0.255
64.2441 0.398
64.2546 0.398
64.2652 0.194
64.2757 0.245
64.2862 0.204
64.2967 0.296
64.3073 0.266
64.3178 0.347
64.3283 0.245
64.3388 0.266
64.3493 0.214
64.3599 0.184
64.3704 0.276
64.3809 0.204
64.3914 0.255
64.4020 0.204
64.4125 0.184
64.4230 0.153
64.4335 0.245
64.4440 0.204
64.4546 0.204
64.4651 0.306
64.4756 0.204
64.4861 0.214
64.4967 0.245
64.5072 0.276
64.5177 0.225
64.5282 0.214
64.5388 0.214
64.5493 0.184
64.5598 0.143
64.5703 0.225
64.5808 0.296
64.5914 0.225
64.6019 0.235
64.6124 0.225
64.6229 0.204
64.6335 0.225
64.6440 0.255
64.6545 0.266
64.6650 0.235
64.6755 0.245
64.6861 0.276
64.6966 0.306
64.7071 0.235
64.7176 0.388
64.7282 0.276
64.7387 0.255
64.7492 0.194
64.7597 0.225
64.7703 0.306
64.7808 0.245
64.7913 0.204
64.8018 0.225
64.8123 0.214
64.8229 0.245
64.8334 0.225
64.8439 0.214
64.8544 0.204
64.8650 0.204
64.8755 0.225
64.8860 0.153
64.8965 0.204
64.9070 0.225
64.9176 0.306
64.9281 0.184
64.9386 0.184
64.9491 0.184
64.9597 0.204
64.9702 0.163
64.9807 0.174
64.9912 0.204
65.0017 0.143
65.0123 0.112
65.0228 0.245
65.0333 0.133
65.0438 0.102
65.0544 0.214
65.0649 0.225
65.0754 0.153
65.0859 0.194
65.0965 0.235
65.1070 0.143
65.1175 0.214
65.1280 0.133
65.1385 0.235
65.1491 0.184
65.1596 0.163
65.1701 0.204
65.1806 0.153
65.1912 0.214
65.2017 0.163
65.2122 0.194
65.2227 0.204
65.2332 0.102
65.2438 0.163
65.2543 0.153
65.2648 0.255
65.2753 0.143
65.2859 0.194
65.2964 0.225
65.3069 0.214
65.3174 0.153
65.3279 0.184
65.3385 0.194
65.3490 0.245
65.3595 0.266
65.3700 0.184
65.3806 0.317
65.3911 0.214
65.4016 0.235
65.4121 0.276
65.4227 0.255
65.4332 0.225
65.4437 0.286
65.4542 0.245
65.4647 0.255
65.4753 0.276
65.4858 0.204
65.4963 0.306
65.5068 0.296
65.5174 0.245
65.5279 0.327
65.5384 0.347
65.5489 0.266
65.5594 0.357
65.5700 0.327
65.5805 0.225
65.5910 0.266
65.6015 0.286
65.6121 0.235
65.6226 0.255
65.6331 0.337
65.6436 0.337
65.6542 0.235
65.6647 0.225
65.6752 0.214
65.6857 0.235
65.6962 0.337
65.7068 0.245
65.7173 0.327
65.7278 0.306
65.7383 0.276
65.7489 0.276
65.7594 0.306
65.7699 0.337
65.7804 0.337
65.7909 0.327
65.8015 0.286
65.8120 0.337
65.8225 0.480
65.8330 0.500
65.8436 0.419
65.8541 0.562
65.8646 0.480
65.8751 0.470
65.8856 0.398
65.8962 0.419
65.9067 0.470
65.9172 0.490
65.9277 0.460
65.9383 0.460
65.9488 0.460
65.9593 0.470
65.9698 0.531
65.9804 0.582
65.9909 0.613
66.0014 0.551
66.0119 0.572
66.0224 0.449
66.0330 0.633
66.0435 0.449
66.0540 0.531
66.0645 0.551
66.0751 0.511
66.0856 0.500
66.0961 0.521
66.1066 0.562
66.1171 0.480
66.1277 0.786
66.1382 0.398
66.1487 0.500
66.1592 0.582
66.1698 0.521
66.1803 0.429
66.1908 0.551
66.2013 0.592
66.2119 0.490
66.2224 0.480
66.2329 0.551
66.2434 0.531
66.2539 0.664
66.2645 0.643
66.2750 0.664
66.2855 0.858
66.2960 0.735
66.3066 0.868
66.3171 0.776
66.3276 0.786
66.3381 1.062
66.3486 0.950
66.3592 1.144
66.3697 1.195
66.3802 1.348
66.3907 1.379
66.4013 1.409
66.4118 1.399
66.4223 1.185
66.4328 1.379
66.4433 1.195
66.4539 0.960
66.4644 1.052
66.4749 1.001
66.4854 1.011
66.4960 0.837
66.5065 0.980
66.5170 0.674
66.5275 0.756
66.5381 0.562
66.5486 0.480
66.5591 0.521
66.5696 0.603
66.5801 0.511
66.5907 0.439
66.6012 0.500
66.6117 0.490
66.6222 0.439
66.6328 0.500
66.6433 0.317
66.6538 0.460
66.6643 0.327
66.6748 0.317
66.6854 0.255
66.6959 0.245
66.7064 0.286
66.7169 0.276
66.7275 0.286
66.7380 0.194
66.7485 0.123
66.7590 0.214
66.7695 0.163
66.7801 0.225
66.7906 0.174
66.8011 0.327
66.8116 0.204
66.8222 0.235
66.8327 0.225
66.8432 0.245
66.8537 0.184
66.8643 0.214
66.8748 0.296
66.8853 0.184
66.8958 0.276
66.9063 0.225
66.9169 0.214
66.9274 0.174
66.9379 0.204
66.9484 0.286
66.9590 0.378
66.9695 0.245
66.9800 0.204
66.9905 0.327
67.0010 0.153
67.0116 0.245
67.0221 0.286
67.0326 0.204
67.0431 0.225
67.0537 0.317
67.0642 0.163
67.0747 0.235
67.0852 0.296
67.0958 0.184
67.1063 0.276
67.1168 0.327
67.1273 0.398
67.1378 0.327
67.1484 0.214
67.1589 0.317
67.1694 0.286
67.1799 0.347
67.1905 0.347
67.2010 0.439
67.2115 0.306
67.2220 0.378
67.2325 0.429
67.2431 0.408
67.2536 0.551
67.2641 0.439
67.2746 0.214
67.2852 0.500
67.2957 0.490
67.3062 0.460
67.3167 0.551
67.3272 0.551
67.3378 0.470
67.3483 0.633
67.3588 0.490
67.3693 0.521
67.3799 0.715
67.3904 0.766
67.4009 0.807
67.4114 0.797
67.4220 0.899
67.4325 0.837
67.4430 0.817
67.4535 0.878
67.4640 0.858
67.4746 0.919
67.4851 0.950
67.4956 1.062
67.5061 0.960
67.5167 1.021
67.5272 1.154
67.5377 1.021
67.5482 1.113
67.5587 1.062
67.5693 1.031
67.5798 1.134
67.5903 1.062
67.6008 0.848
67.6114 0.643
67.6219 0.827
67.6324 0.797
67.6429 0.633
67.6534 0.664
67.6640 0.694
67.6745 0.613
67.6850 0.572
67.6955 0.654
67.7061 0.725
67.7166 0.470
67.7271 0.500
67.7376 0.419
67.7482 0.470
67.7587 0.429
67.7692 0.408
67.7797 0.419
67.7902 0.500
67.8008 0.398
67.8113 0.388
67.8218 0.347
67.8323 0.276
67.8429 0.327
67.8534 0.347
67.8639 0.368
67.8744 0.347
67.8849 0.235
67.8955 0.296
67.9060 0.235
67.9165 0.327
67.9270 0.337
67.9376 0.388
67.9481 0.245
67.9586 0.347
67.9691 0.357
67.9797 0.255
67.9902 0.286
68.0007 0.368
68.0112 0.398
68.0217 0.235
68.0323 0.266
68.0428 0.255
68.0533 0.286
68.0638 0.337
68.0744 0.296
68.0849 0.368
68.0954 0.388
68.1059 0.347
68.1164 0.419
68.1270 0.398
68.1375 0.296
68.1480 0.368
68.1585 0.398
68.1691 0.378
68.1796 0.470
68.1901 0.388
68.2006 0.480
68.2111 0.551
68.2217 0.511
68.2322 0.460
68.2427 0.500
68.2532 0.429
68.2638 0.408
68.2743 0.449
68.2848 0.551
68.2953 0.337
68.3059 0.439
68.3164 0.500
68.3269 0.357
68.3374 0.378
68.3479 0.439
68.3585 0.368
68.3690 0.357
68.3795 0.408
68.3900 0.388
68.4006 0.306
68.4111 0.439
68.4216 0.449
68.4321 0.296
68.4426 0.306
68.4532 0.347
68.4637 0.337
68.4742 0.347
68.4847 0.419
68.4953 0.327
68.5058 0.286
68.5163 0.398
68.5268 0.214
68.5373 0.235
68.5479 0.194
68.5584 0.174
68.5689 0.174
68.5794 0.235
68.5900 0.255
68.6005 0.225
68.6110 0.255
68.6215 0.235
68.6321 0.194
68.6426 0.153
68.6531 0.225
68.6636 0.204
68.6741 0.255
68.6847 0.255
68.6952 0.204
68.7057 0.276
68.7162 0.174
68.7268 0.143
68.7373 0.204
68.7478 0.276
68.7583 0.214
68.7688 0.163
68.7794 0.174
68.7899 0.153
68.8004 0.143
68.8109 0.153
68.8215 0.184
68.8320 0.235
68.8425 0.163
68.8530 0.306
68.8636 0.153
68.8741 0.194
68.8846 0.245
68.8951 0.184
68.9056 0.194
68.9162 0.163
68.9267 0.194
68.9372 0.204
68.9477 0.133
68.9583 0.276
68.9688 0.204
68.9793 0.174
68.9898 0.163
69.0003 0.184
69.0109 0.194
69.0214 0.153
69.0319 0.163
69.0424 0.296
69.0530 0.184
69.0635 0.112
69.0740 0.143
69.0845 0.214
69.0950 0.184
69.1056 0.245
69.1161 0.194
69.1266 0.245
69.1371 0.214
69.1477 0.163
69.1582 0.214
69.1687 0.214
69.1792 0.174
69.1898 0.174
69.2003 0.194
69.2108 0.245
69.2213 0.174
69.2318 0.225
69.2424 0.255
69.2529 0.327
69.2634 0.153
69.2739 0.337
69.2845 0.357
69.2950 0.266
69.3055 0.255
69.3160 0.296
69.3265 0.347
69.3371 0.337
69.3476 0.490
69.3581 0.337
69.3686 0.368
69.3792 0.429
69.3897 0.296
69.4002 0.449
69.4107 0.490
69.4212 0.572
69.4318 0.541
69.4423 0.562
69.4528 0.500
69.4633 0.623
69.4739 0.603
69.4844 0.582
69.4949 0.654
69.5054 0.531
69.5160 0.643
69.5265 0.541
69.5370 0.541
69.5475 0.664
69.5580 0.541
69.5686 0.541
69.5791 0.531
69.5896 0.480
69.6001 0.388
69.6107 0.439
69.6212 0.378
69.6317 0.480
69.6422 0.306
69.6527 0.480
69.6633 0.276
69.6738 0.419
69.6843 0.306
69.6948 0.296
69.7054 0.357
69.7159 0.276
69.7264 0.286
69.7369 0.225
69.7475 0.317
69.7580 0.296
69.7685 0.306
69.7790 0.388
69.7895 0.398
69.8001 0.327
69.8106 0.255
69.8211 0.174
69.8316 0.419
69.8422 0.194
69.8527 0.194
69.8632 0.296
69.8737 0.357
69.8842 0.337
69.8948 0.368
69.9053 0.235
69.9158 0.460
69.9263 0.388
69.9369 0.398
69.9474 0.449
69.9579 0.398
69.9684 0.470
69.9789 0.613
69.9895 0.572
70.0000 0.470
70.0105 0.562
70.0210 0.541
70.0316 0.582
70.0421 0.572
70.0526 0.551
70.0631 0.837
70.0737 0.776
70.0842 0.848
70.0947 0.940
70.1052 1.052
70.1157 1.154
70.1263 1.185
70.1368 1.011
70.1473 1.195
70.1578 1.491
70.1684 1.307
70.1789 1.532
70.1894 1.491
70.1999 1.695
70.2104 1.634
70.2210 1.716
70.2315 1.828
70.2420 1.665
70.2525 1.716
70.2631 1.838
70.2736 1.654
70.2841 1.614
70.2946 1.603
70.3052 1.573
70.3157 1.440
70.3262 1.246
70.3367 1.185
70.3472 1.185
70.3578 1.062
70.3683 0.980
70.3788 0.960
70.3893 1.001
70.3999 0.919
70.4104 0.960
70.4209 0.705
70.4314 0.837
70.4419 0.776
70.4525 0.531
70.4630 0.592
70.4735 0.388
70.4840 0.551
70.4946 0.480
70.5051 0.398
70.5156 0.408
70.5261 0.398
70.5366 0.306
70.5472 0.388
70.5577 0.347
70.5682 0.460
70.5787 0.378
70.5893 0.368
70.5998 0.306
70.6103 0.245
70.6208 0.357
70.6314 0.317
70.6419 0.296
70.6524 0.194
70.6629 0.286
70.6734 0.276
70.6840 0.276
70.6945 0.276
70.7050 0.225
70.7155 0.163
70.7261 0.214
70.7366 0.327
70.7471 0.204
70.7576 0.225
70.7681 0.214
70.7787 0.204
70.7892 0.184
70.7997 0.112
70.8102 0.225
70.8208 0.174
70.8313 0.255
70.8418 0.225
70.8523 0.235
70.8628 0.214
70.8734 0.225
70.8839 0.255
70.8944 0.184
70.9049 0.184
70.9155 0.235
70.9260 0.255
70.9365 0.296
70.9470 0.235
70.9576 0.123
70.9681 0.133
70.9786 0.204
70.9891 0.235
70.9996 0.214
71.0102 0.266
71.0207 0.255
71.0312 0.153
71.0417 0.184
71.0523 0.255
71.0628 0.214
71.0733 0.225
71.0838 0.225
71.0943 0.266
71.1049 0.255
71.1154 0.235
71.1259 0.296
71.1364 0.204
71.1470 0.225
71.1575 0.153
71.1680 0.194
71.1785 0.245
71.1891 0.347
71.1996 0.255
71.2101 0.327
71.2206 0.317
71.2311 0.317
71.2417 0.327
71.2522 0.255
71.2627 0.306
71.2732 0.357
71.2838 0.368
71.2943 0.317
71.3048 0.337
71.3153 0.337
71.3258 0.449
71.3364 0.296
71.3469 0.449
71.3574 0.531
71.3679 0.511
71.3785 0.562
71.3890 0.490
71.3995 0.521
71.4100 0.592
71.4205 0.541
71.4311 0.592
71.4416 0.654
71.4521 0.643
71.4626 0.623
71.4732 0.756
71.4837 0.429
71.4942 0.633
71.5047 0.562
71.5153 0.551
71.5258 0.449
71.5363 0.531
71.5468 0.521
71.5573 0.521
71.5679 0.470
71.5784 0.408
71.5889 0.490
71.5994 0.368
71.6100 0.531
71.6205 0.500
71.6310 0.337
71.6415 0.398
71.6520 0.357
71.6626 0.470
71.6731 0.408
71.6836 0.408
71.6941 0.357
71.7047 0.388
71.7152 0.276
71.7257 0.245
71.7362 0.460
71.7467 0.357
71.7573 0.378
71.7678 0.408
71.7783 0.347
71.7888 0.429
71.7994 0.347
71.8099 0.368
71.8204 0.357
71.8309 0.357
71.8415 0.449
71.8520 0.317
71.8625 0.480
71.8730 0.398
71.8835 0.531
71.8941 0.388
71.9046 0.439
71.9151 0.531
71.9256 0.439
71.9362 0.603
71.9467 0.572
71.9572 0.592
71.9677 0.460
71.9782 0.511
71.9888 0.664
71.9993 0.613
72.0098 0.674
72.0203 0.572
72.0309 0.592
72.0414 0.776
72.0519 0.674
72.0624 0.592
72.0730 0.643
72.0835 0.541
72.0940 0.664
72.1045 0.664
72.1150 0.919
72.1256 0.592
72.1361 0.592
72.1466 0.797
72.1571 0.746
72.1677 0.899
72.1782 0.817
72.1887 0.715
72.1992 0.848
72.2097 0.960
72.2203 0.940
72.2308 0.940
72.2413 1.052
72.2518 1.164
72.2624 1.113
72.2729 1.277
72.2834 1.185
72.2939 1.195
72.3044 1.174
72.3150 1.532
72.3255 1.522
72.3360 1.511
72.3465 1.277
72.3571 1.654
72.3676 1.399
72.3781 1.736
72.3886 1.634
72.3992 1.542
72.4097 1.552
72.4202 1.624
72.4307 1.430
72.4412 1.307
72.4518 1.338
72.4623 1.501
72.4728 1.420
72.4833 1.389
72.4939 1.103
72.5044 1.031
72.5149 1.256
72.5254 0.888
72.5359 0.878
72.5465 0.837
72.5570 0.848
72.5675 0.746
72.5780 0.633
72.5886 0.766
72.5991 0.694
72.6096 0.551
72.6201 0.521
72.6306 0.684
72.6412 0.551
72.6517 0.551
72.6622 0.296
72.6727 0.460
72.6833 0.347
72.6938 0.327
72.7043 0.327
72.7148 0.337
72.7254 0.378
72.7359 0.398
72.7464 0.449
72.7569 0.449
72.7674 0.286
72.7780 0.276
72.7885 0.337
72.7990 0.184
72.8095 0.327
72.8201 0.296
72.8306 0.214
72.8411 0.225
72.8516 0.266
72.8621 0.204
72.8727 0.184
72.8832 0.347
72.8937 0.245
72.9042 0.296
72.9148 0.255
72.9253 0.357
72.9358 0.317
72.9463 0.194
72.9569 0.327
72.9674 0.194
72.9779 0.225
72.9884 0.204
72.9989 0.235
73.0095 0.245
73.0200 0.204
73.0305 0.235
73.0410 0.214
73.0516 0.214
73.0621 0.184
73.0726 0.143
73.0831 0.225
73.0936 0.153
73.1042 0.266
73.1147 0.225
73.1252 0.245
73.1357 0.153
73.1463 0.194
73.1568 0.153
73.1673 0.235
73.1778 0.204
73.1883 0.194
73.1989 0.194
73.2094 0.133
73.2199 0.245
73.2304 0.204
73.2410 0.214
73.2515 0.153
73.2620 0.194
73.2725 0.245
73.2831 0.225
73.2936 0.184
73.3041 0.317
73.3146 0.245
73.3251 0.225
73.3357 0.184
73.3462 0.286
73.3567 0.255
73.3672 0.204
73.3778 0.296
73.3883 0.337
73.3988 0.286
73.4093 0.357
73.4198 0.388
73.4304 0.337
73.4409 0.408
73.4514 0.490
73.4619 0.419
73.4725 0.388
73.4830 0.398
73.4935 0.378
73.5040 0.480
73.5146 0.460
73.5251 0.388
73.5356 0.460
73.5461 0.582
73.5566 0.511
73.5672 0.460
73.5777 0.551
73.5882 0.551
73.5987 0.470
73.6093 0.531
73.6198 0.460
73.6303 0.521
73.6408 0.531
73.6513 0.521
73.6619 0.541
73.6724 0.460
73.6829 0.378
73.6934 0.408
73.7040 0.327
73.7145 0.500
73.7250 0.306
73.7355 0.357
73.7460 0.337
73.7566 0.317
73.7671 0.286
73.7776 0.184
73.7881 0.255
73.7987 0.184
73.8092 0.306
73.8197 0.337
73.8302 0.225
73.8408 0.245
73.8513 0.174
73.8618 0.214
73.8723 0.214
73.8828 0.255
73.8934 0.266
73.9039 0.347
73.9144 0.184
73.9249 0.235
73.9355 0.317
73.9460 0.347
73.9565 0.102
73.9670 0.235
73.9775 0.235
73.9881 0.235
73.9986 0.163
74.0091 0.204
74.0196 0.266
74.0302 0.214
74.0407 0.276
74.0512 0.306
74.0617 0.255
74.0722 0.204
74.0828 0.286
74.0933 0.357
74.1038 0.194
74.1143 0.327
74.1249 0.286
74.1354 0.347
74.1459 0.296
74.1564 0.296
74.1670 0.357
74.1775 0.225
74.1880 0.317
74.1985 0.480
74.2090 0.490
74.2196 0.337
74.2301 0.500
74.2406 0.460
74.2511 0.460
74.2617 0.429
74.2722 0.643
74.2827 0.746
74.2932 0.623
74.3037 0.766
74.3143 0.756
74.3248 0.817
74.3353 0.817
74.3458 0.848
74.3564 0.960
74.3669 0.950
74.3774 1.001
74.3879 1.113
74.3985 1.174
74.4090 1.154
74.4195 1.001
74.4300 1.185
74.4405 1.307
74.4511 1.256
74.4616 1.491
74.4721 1.256
74.4826 1.031
74.4932 0.980
74.5037 1.113
74.5142 0.878
74.5247 0.746
74.5352 0.746
74.5458 0.940
74.5563 0.725
74.5668 0.756
74.5773 0.725
74.5879 0.572
74.5984 0.541
74.6089 0.694
74.6194 0.623
74.6299 0.490
74.6405 0.460
74.6510 0.398
74.6615 0.357
74.6720 0.398
74.6826 0.327
74.6931 0.255
74.7036 0.327
74.7141 0.357
74.7247 0.317
74.7352 0.388
74.7457 0.368
74.7562 0.357
74.7667 0.255
74.7773 0.235
74.7878 0.245
74.7983 0.296
74.8088 0.286
74.8194 0.266
74.8299 0.306
74.8404 0.357
74.8509 0.388
74.8614 0.357
74.8720 0.306
74.8825 0.296
74.8930 0.286
74.9035 0.296
74.9141 0.235
74.9246 0.306
74.9351 0.266
74.9456 0.255
74.9561 0.255
74.9667 0.204
74.9772 0.306
74.9877 0.245
74.9982 0.276
75.0088 0.214
75.0193 0.296
75.0298 0.214
75.0403 0.214
75.0509 0.317
75.0614 0.306
75.0719 0.266
75.0824 0.378
75.0929 0.296
75.1035 0.317
75.1140 0.306
75.1245 0.357
75.1350 0.368
75.1456 0.460
75.1561 0.317
75.1666 0.347
75.1771 0.306
75.1876 0.306
75.1982 0.327
75.2087 0.388
75.2192 0.439
75.2297 0.296
75.2403 0.337
75.2508 0.327
75.2613 0.286
75.2718 0.255
75.2824 0.296
75.2929 0.255
75.3034 0.347
75.3139 0.266
75.3244 0.255
75.3350 0.276
75.3455 0.255
75.3560 0.327
75.3665 0.266
75.3771 0.368
75.3876 0.245
75.3981 0.317
75.4086 0.255
75.4191 0.255
75.4297 0.286
75.4402 0.266
75.4507 0.235
75.4612 0.245
75.4718 0.296
75.4823 0.286
75.4928 0.286
75.5033 0.460
75.5138 0.347
75.5244 0.286
75.5349 0.245
75.5454 0.327
75.5559 0.255
75.5665 0.531
75.5770 0.286
75.5875 0.357
75.5980 0.327
75.6086 0.398
75.6191 0.337
75.6296 0.419
75.6401 0.296
75.6506 0.378
75.6612 0.398
75.6717 0.398
75.6822 0.368
75.6927 0.296
75.7033 0.490
75.7138 0.429
75.7243 0.480
75.7348 0.368
75.7453 0.408
75.7559 0.317
75.7664 0.429
75.7769 0.429
75.7874 0.439
75.7980 0.368
75.8085 0.388
75.8190 0.388
75.8295 0.347
75.8400 0.408
75.8506 0.266
75.8611 0.327
75.8716 0.398
75.8821 0.317
75.8927 0.429
75.9032 0.266
75.9137 0.327
75.9242 0.347
75.9348 0.266
75.9453 0.276
75.9558 0.439
75.9663 0.174
75.9768 0.419
75.9874 0.214
75.9979 0.388
76.0084 0.347
76.0189 0.255
76.0295 0.286
76.0400 0.317
76.0505 0.388
76.0610 0.255
76.0715 0.388
76.0821 0.317
76.0926 0.296
76.1031 0.398
76.1136 0.306
76.1242 0.286
76.1347 0.245
76.1452 0.378
76.1557 0.296
76.1663 0.296
76.1768 0.419
76.1873 0.327
76.1978 0.347
76.2083 0.388
76.2189 0.357
76.2294 0.347
76.2399 0.378
76.2504 0.408
76.2610 0.306
76.2715 0.235
76.2820 0.347
76.2925 0.337
76.3030 0.347
76.3136 0.357
76.3241 0.255
76.3346 0.296
76.3451 0.204
76.3557 0.194
76.3662 0.245
76.3767 0.276
76.3872 0.204
76.3977 0.286
76.4083 0.357
76.4188 0.214
76.4293 0.255
76.4398 0.214
76.4504 0.296
76.4609 0.235
76.4714 0.214
76.4819 0.204
76.4925 0.174
76.5030 0.255
76.5135 0.194
76.5240 0.194
76.5345 0.204
76.5451 0.245
76.5556 0.235
76.5661 0.143
76.5766 0.143
76.5872 0.143
76.5977 0.163
76.6082 0.184
76.6187 0.133
76.6292 0.225
76.6398 0.133
76.6503 0.184
76.6608 0.133
76.6713 0.194
76.6819 0.133
76.6924 0.133
76.7029 0.163
76.7134 0.123
76.7240 0.112
76.7345 0.194
76.7450 0.133
76.7555 0.123
76.7660 0.184
76.7766 0.112
76.7871 0.071
76.7976 0.102
76.8081 0.174
76.8187 0.143
76.8292 0.092
76.8397 0.133
76.8502 0.214
76.8607 0.174
76.8713 0.143
76.8818 0.112
76.8923 0.204
76.9028 0.194
76.9134 0.153
76.9239 0.102
76.9344 0.153
76.9449 0.153
76.9554 0.194
76.9660 0.112
76.9765 0.204
76.9870 0.225
76.9975 0.184
77.0081 0.225
77.0186 0.153
77.0291 0.102
77.0396 0.143
77.0502 0.174
77.0607 0.123
77.0712 0.143
77.0817 0.174
77.0922 0.112
77.1028 0.163
77.1133 0.163
77.1238 0.214
77.1343 0.163
77.1449 0.184
77.1554 0.245
77.1659 0.214
77.1764 0.143
77.1869 0.174
77.1975 0.184
77.2080 0.133
77.2185 0.225
77.2290 0.163
77.2396 0.143
77.2501 0.184
77.2606 0.214
77.2711 0.337
77.2816 0.214
77.2922 0.174
77.3027 0.214
77.3132 0.194
77.3237 0.286
77.3343 0.225
77.3448 0.266
77.3553 0.245
77.3658 0.286
77.3764 0.235
77.3869 0.174
77.3974 0.266
77.4079 0.347
77.4184 0.266
77.4290 0.368
77.4395 0.266
77.4500 0.296
77.4605 0.245
77.4711 0.194
77.4816 0.368
77.4921 0.306
77.5026 0.317
77.5131 0.378
77.5237 0.347
77.5342 0.470
77.5447 0.408
77.5552 0.327
77.5658 0.470
77.5763 0.439
77.5868 0.408
77.5973 0.439
77.6079 0.470
77.6184 0.408
77.6289 0.460
77.6394 0.408
77.6499 0.439
77.6605 0.572
77.6710 0.654
77.6815 0.521
77.6920 0.592
77.7026 0.398
77.7131 0.470
77.7236 0.684
77.7341 0.562
77.7446 0.623
77.7552 0.562
77.7657 0.572
77.7762 0.776
77.7867 0.817
77.7973 0.735
77.8078 0.694
77.8183 0.643
77.8288 0.807
77.8393 0.766
77.8499 0.562
77.8604 0.694
77.8709 0.725
77.8814 0.735
77.8920 0.797
77.9025 0.797
77.9130 0.970
77.9235 0.766
77.9341 0.848
77.9446 0.807
77.9551 0.848
77.9656 0.756
77.9761 0.715
77.9867 0.797
77.9972 0.674
78.0077 0.786
78.0182 0.827
78.0288 0.623
78.0393 0.562
78.0498 0.705
78.0603 0.797
78.0708 0.582
78.0814 0.562
78.0919 0.623
78.1024 0.705
78.1129 0.500
78.1235 0.735
78.1340 0.592
78.1445 0.419
78.1550 0.521
78.1655 0.582
78.1761 0.449
78.1866 0.388
78.1971 0.572
78.2076 0.317
78.2182 0.378
78.2287 0.470
78.2392 0.317
78.2497 0.357
78.2603 0.225
78.2708 0.378
78.2813 0.225
78.2918 0.337
78.3023 0.276
78.3129 0.368
78.3234 0.378
78.3339 0.337
78.3444 0.255
78.3550 0.286
78.3655 0.306
78.3760 0.296
78.3865 0.245
78.3970 0.194
78.4076 0.174
78.4181 0.204
78.4286 0.163
78.4391 0.225
78.4497 0.163
78.4602 0.276
78.4707 0.276
78.4812 0.225
78.4918 0.204
78.5023 0.184
78.5128 0.235
78.5233 0.194
78.5338 0.163
78.5444 0.143
78.5549 0.143
78.5654 0.214
78.5759 0.194
78.5865 0.184
78.5970 0.153
78.6075 0.194
78.6180 0.286
78.6285 0.174
78.6391 0.214
78.6496 0.174
78.6601 0.225
78.6706 0.245
78.6812 0.174
78.6917 0.174
78.7022 0.174
78.7127 0.092
78.7232 0.184
78.7338 0.112
78.7443 0.143
78.7548 0.092
78.7653 0.163
78.7759 0.163
78.7864 0.194
78.7969 0.153
78.8074 0.163
78.8180 0.245
78.8285 0.266
78.8390 0.214
78.8495 0.194
78.8600 0.153
78.8706 0.092
78.8811 0.092
78.8916 0.194
78.9021 0.255
78.9127 0.153
78.9232 0.174
78.9337 0.123
78.9442 0.112
78.9547 0.194
78.9653 0.112
78.9758 0.102
78.9863 0.112
78.9968 0.194
79.0074 0.112
79.0179 0.225
79.0284 0.112
79.0389 0.092
79.0494 0.112
79.0600 0.102
79.0705 0.245
79.0810 0.163
79.0915 0.194
79.1021 0.082
79.1126 0.163
79.1231 0.163
79.1336 0.133
79.1442 0.133
79.1547 0.163
79.1652 0.225
79.1757 0.092
79.1862 0.123
79.1968 0.133
79.2073 0.153
79.2178 0.143
79.2283 0.163
79.2389 0.194
79.2494 0.133
79.2599 0.163
79.2704 0.163
79.2809 0.153
79.2915 0.184
79.3020 0.112
79.3125 0.112
79.3230 0.123
79.3336 0.082
79.3441 0.174
79.3546 0.133
79.3651 0.153
79.3757 0.153
79.3862 0.174
79.3967 0.123
79.4072 0.092
79.4177 0.112
79.4283 0.143
79.4388 0.061
79.4493 0.133
79.4598 0.071
79.4704 0.174
79.4809 0.133
79.4914 0.174
79.5019 0.153
79.5124 0.143
79.5230 0.102
79.5335 0.163
79.5440 0.112
79.5545 0.112
79.5651 0.194
79.5756 0.143
79.5861 0.174
79.5966 0.112
79.6071 0.102
79.6177 0.102
79.6282 0.163
79.6387 0.123
79.6492 0.112
79.6598 0.174
79.6703 0.082
79.6808 0.194
79.6913 0.133
79.7019 0.143
79.7124 0.133
79.7229 0.184
79.7334 0.133
79.7439 0.153
79.7545 0.133
79.7650 0.163
79.7755 0.133
79.7860 0.194
79.7966 0.153
79.8071 0.204
79.8176 0.194
79.8281 0.163
79.8386 0.194
79.8492 0.266
79.8597 0.174
79.8702 0.255
79.8807 0.225
79.8913 0.174
79.9018 0.214
79.9123 0.143
79.9228 0.184
79.9333 0.153
79.9439 0.143
79.9544 0.204
79.9649 0.174
79.9754 0.153
79.9860 0.235
79.9965 0.266
80.0070 0.306
